# time = 8.000000000000000e-01# start, end, pivot, particles, density
0.00000e+00, 2.41493e-04, 1.20747e-04, 1.07570e-04, 4.45435e-01
2.41493e-04, 5.31286e-04, 3.86390e-04, 1.29030e-04, 4.45250e-01
5.31286e-04, 8.79036e-04, 7.05161e-04, 1.54759e-04, 4.45030e-01
8.79036e-04, 1.29634e-03, 1.08769e-03, 1.85601e-04, 4.44765e-01
1.29634e-03, 1.79710e-03, 1.54672e-03, 2.22562e-04, 4.44447e-01
1.79710e-03, 2.39801e-03, 2.09755e-03, 2.66845e-04, 4.44066e-01
2.39801e-03, 3.11911e-03, 2.75856e-03, 3.19885e-04, 4.43610e-01
3.11911e-03, 3.98442e-03, 3.55176e-03, 3.83389e-04, 4.43063e-01
3.98442e-03, 5.02280e-03, 4.50361e-03, 4.59386e-04, 4.42408e-01
5.02280e-03, 6.26885e-03, 5.64583e-03, 5.50286e-04, 4.41623e-01
6.26885e-03, 7.76412e-03, 7.01648e-03, 6.58939e-04, 4.40684e-01
7.76412e-03, 9.55843e-03, 8.66127e-03, 7.88708e-04, 4.39559e-01
9.55843e-03, 1.17116e-02, 1.06350e-02, 9.43558e-04, 4.38216e-01
1.17116e-02, 1.42954e-02, 1.30035e-02, 1.12812e-03, 4.36609e-01
1.42954e-02, 1.73960e-02, 1.58457e-02, 1.34779e-03, 4.34691e-01
1.73960e-02, 2.11167e-02, 1.92564e-02, 1.60883e-03, 4.32401e-01
2.11167e-02, 2.55815e-02, 2.33491e-02, 1.91845e-03, 4.29679e-01
2.55815e-02, 3.09393e-02, 2.82604e-02, 2.28474e-03, 4.26432e-01
3.09393e-02, 3.73687e-02, 3.41540e-02, 2.71694e-03, 4.22584e-01
3.73687e-02, 4.50839e-02, 4.12263e-02, 3.22510e-03, 4.18017e-01
4.50839e-02, 5.43422e-02, 4.97131e-02, 3.82014e-03, 4.12619e-01
5.43422e-02, 6.54521e-02, 5.98972e-02, 4.51313e-03, 4.06225e-01
6.54521e-02, 7.87841e-02, 7.21181e-02, 5.31654e-03, 3.98783e-01
7.87841e-02, 9.47824e-02, 8.67832e-02, 6.23965e-03, 3.90019e-01
9.47824e-02, 1.13980e-01, 1.04381e-01, 7.29199e-03, 3.79832e-01
1.13980e-01, 1.37018e-01, 1.25499e-01, 8.47875e-03, 3.68040e-01
1.37018e-01, 1.64663e-01, 1.50840e-01, 9.79986e-03, 3.54488e-01
1.64663e-01, 1.97837e-01, 1.81250e-01, 1.12474e-02, 3.39042e-01
1.97837e-01, 2.37646e-01, 2.17742e-01, 1.28029e-02, 3.21609e-01
2.37646e-01, 2.85417e-01, 2.61531e-01, 1.44185e-02, 3.01826e-01
2.85417e-01, 3.42742e-01, 3.14079e-01, 1.60978e-02, 2.80817e-01
3.42742e-01, 4.11531e-01, 3.77136e-01, 1.77115e-02, 2.57472e-01
4.11531e-01, 4.94079e-01, 4.52805e-01, 1.92169e-02, 2.32798e-01
4.94079e-01, 5.93136e-01, 5.43608e-01, 2.05127e-02, 2.07079e-01
5.93136e-01, 7.12005e-01, 6.52571e-01, 2.15170e-02, 1.81015e-01
7.12005e-01, 8.54648e-01, 7.83326e-01, 2.21394e-02, 1.55209e-01
8.54648e-01, 1.02582e+00, 9.40233e-01, 2.23303e-02, 1.30456e-01
1.02582e+00, 1.23122e+00, 1.12852e+00, 2.20716e-02, 1.07454e-01
1.23122e+00, 1.47771e+00, 1.35447e+00, 2.13910e-02, 8.67839e-02
1.47771e+00, 1.77349e+00, 1.62560e+00, 2.03533e-02, 6.88114e-02
1.77349e+00, 2.12843e+00, 1.95096e+00, 1.90488e-02, 5.36675e-02
2.12843e+00, 2.55436e+00, 2.34140e+00, 1.75716e-02, 4.12548e-02
2.55436e+00, 3.06548e+00, 2.80992e+00, 1.60048e-02, 3.13136e-02
3.06548e+00, 3.67881e+00, 3.37214e+00, 1.44095e-02, 2.34936e-02
3.67881e+00, 4.41482e+00, 4.04681e+00, 1.28289e-02, 1.74304e-02
4.41482e+00, 5.29802e+00, 4.85642e+00, 1.12890e-02, 1.27819e-02
5.29802e+00, 6.35787e+00, 5.82794e+00, 9.80848e-03, 9.25463e-03
6.35787e+00, 7.62968e+00, 6.99378e+00, 8.40248e-03, 6.60668e-03
7.62968e+00, 9.15586e+00, 8.39277e+00, 7.08687e-03, 4.64354e-03
9.15586e+00, 1.09873e+01, 1.00716e+01, 5.85002e-03, 3.19426e-03
1.09873e+01, 1.31850e+01, 1.20861e+01, 4.71399e-03, 2.14497e-03
1.31850e+01, 1.58222e+01, 1.45036e+01, 3.68974e-03, 1.39909e-03
1.58222e+01, 1.89869e+01, 1.74045e+01, 2.78806e-03, 8.80992e-04
1.89869e+01, 2.27845e+01, 2.08857e+01, 2.01862e-03, 5.31549e-04
2.27845e+01, 2.73417e+01, 2.50631e+01, 1.38775e-03, 3.04523e-04
2.73417e+01, 3.28102e+01, 3.00759e+01, 8.95772e-04, 1.63804e-04
3.28102e+01, 3.93725e+01, 3.60914e+01, 5.35421e-04, 8.15907e-05
3.93725e+01, 4.72473e+01, 4.33099e+01, 2.91186e-04, 3.69772e-05
4.72473e+01, 5.66969e+01, 5.19721e+01, 1.40850e-04, 1.49053e-05
5.66969e+01, 6.80366e+01, 6.23668e+01, 5.86664e-05, 5.17357e-06
6.80366e+01, 8.16441e+01, 7.48404e+01, 1.99823e-05, 1.46847e-06
8.16441e+01, 9.79732e+01, 8.98087e+01, 5.57424e-06, 3.41369e-07
9.79732e+01, 1.17568e+02, 1.07771e+02, 1.21899e-06, 6.22094e-08
1.17568e+02, 1.41082e+02, 1.29325e+02, 1.98855e-07, 8.45692e-09
1.41082e+02, 1.69299e+02, 1.55190e+02, 2.30441e-08, 8.16686e-10
1.69299e+02, 2.03159e+02, 1.86229e+02, 1.79322e-09, 5.29600e-11
2.03159e+02, 2.43790e+02, 2.23475e+02, 8.79689e-11, 2.16502e-12
2.43790e+02, 2.92549e+02, 2.68170e+02, 2.53985e-12, 5.20906e-14
2.92549e+02, 3.51059e+02, 3.21804e+02, 3.99344e-14, 6.82522e-16
3.51059e+02, 4.21271e+02, 3.86165e+02, 3.14898e-16, 4.48495e-18
4.21271e+02, 5.05525e+02, 4.63398e+02, 1.13536e-18, 1.34753e-20
5.05525e+02, 6.06631e+02, 5.56078e+02, 1.69400e-21, 1.67548e-23
6.06631e+02, 7.27957e+02, 6.67294e+02, 9.36937e-25, 7.72246e-27
7.27957e+02, 8.73548e+02, 8.00753e+02, 1.68527e-28, 1.15753e-30
8.73548e+02, 1.04826e+03, 9.60903e+02, 8.37531e-33, 4.79384e-35
1.04826e+03, 1.25791e+03, 1.15308e+03, 9.57500e-38, 4.56709e-40
1.25791e+03, 1.50949e+03, 1.38370e+03, 1.97362e-43, 7.84482e-46
1.50949e+03, 1.81139e+03, 1.66044e+03, 5.40616e-50, 1.79072e-52
1.81139e+03, 2.17367e+03, 1.99253e+03, 1.36587e-57, 3.77022e-60
2.17367e+03, 2.60840e+03, 2.39104e+03, 2.06443e-66, 4.74872e-69
2.60840e+03, 3.13009e+03, 2.86924e+03, 1.12305e-76, 2.15275e-79
3.13009e+03, 3.75610e+03, 3.44309e+03, 1.21772e-88, 1.94519e-91
3.75610e+03, 4.50732e+03, 4.13171e+03, 1.32816e-102, 1.76800e-105
4.50732e+03, 5.40879e+03, 4.95806e+03, 6.65890e-119, 7.38675e-122
5.40879e+03, 6.49055e+03, 5.94967e+03, 6.27880e-138, 5.80426e-141
6.49055e+03, 7.78866e+03, 7.13960e+03, 4.04790e-160, 3.11830e-163
7.78866e+03, 9.34639e+03, 8.56752e+03, 5.69709e-186, 3.65730e-189
9.34639e+03, 1.12157e+04, 1.02810e+04, 4.79131e-216, 2.56319e-219
1.12157e+04, 1.34588e+04, 1.23372e+04, 5.46464e-251, 2.43616e-254
1.34588e+04, 1.61506e+04, 1.48047e+04, 1.55268e-291, 5.76828e-295
1.61506e+04, 1.93807e+04, 1.77656e+04, 0.00000e+00, 0.00000e+00
1.93807e+04, 2.32568e+04, 2.13187e+04, 0.00000e+00, 0.00000e+00
2.32568e+04, 2.79082e+04, 2.55825e+04, 0.00000e+00, 0.00000e+00
2.79082e+04, 3.34898e+04, 3.06990e+04, 0.00000e+00, 0.00000e+00
3.34898e+04, 4.01878e+04, 3.68388e+04, 0.00000e+00, 0.00000e+00
4.01878e+04, 4.82253e+04, 4.42065e+04, 0.00000e+00, 0.00000e+00
4.82253e+04, 5.78704e+04, 5.30478e+04, 0.00000e+00, 0.00000e+00
5.78704e+04, 6.94444e+04, 6.36574e+04, 0.00000e+00, 0.00000e+00
6.94444e+04, 8.33333e+04, 7.63889e+04, 0.00000e+00, 0.00000e+00
8.33333e+04, 1.00000e+05, 9.16667e+04, 0.00000e+00, 0.00000e+00
