# time = 3.800000000000000e-01# start, end, pivot, particles, density
0.00000e+00, 2.41493e-04, 1.20747e-04, 1.64455e-04, 6.80992e-01
2.41493e-04, 5.31286e-04, 3.86390e-04, 1.97277e-04, 6.80753e-01
5.31286e-04, 8.79036e-04, 7.05161e-04, 2.36633e-04, 6.80467e-01
8.79036e-04, 1.29634e-03, 1.08769e-03, 2.83816e-04, 6.80123e-01
1.29634e-03, 1.79710e-03, 1.54672e-03, 3.40373e-04, 6.79711e-01
1.79710e-03, 2.39801e-03, 2.09755e-03, 4.08150e-04, 6.79217e-01
2.39801e-03, 3.11911e-03, 2.75856e-03, 4.89354e-04, 6.78625e-01
3.11911e-03, 3.98442e-03, 3.55176e-03, 5.86610e-04, 6.77915e-01
3.98442e-03, 5.02280e-03, 4.50361e-03, 7.03049e-04, 6.77064e-01
5.02280e-03, 6.26885e-03, 5.64583e-03, 8.42388e-04, 6.76045e-01
6.26885e-03, 7.76412e-03, 7.01648e-03, 1.00904e-03, 6.74826e-01
7.76412e-03, 9.55843e-03, 8.66127e-03, 1.20823e-03, 6.73363e-01
9.55843e-03, 1.17116e-02, 1.06350e-02, 1.44611e-03, 6.71616e-01
1.17116e-02, 1.42954e-02, 1.30035e-02, 1.72993e-03, 6.69524e-01
1.42954e-02, 1.73960e-02, 1.58457e-02, 2.06816e-03, 6.67025e-01
1.73960e-02, 2.11167e-02, 1.92564e-02, 2.47069e-03, 6.64039e-01
2.11167e-02, 2.55815e-02, 2.33491e-02, 2.94894e-03, 6.60482e-01
2.55815e-02, 3.09393e-02, 2.82604e-02, 3.51598e-03, 6.56236e-01
3.09393e-02, 3.73687e-02, 3.41540e-02, 4.18674e-03, 6.51191e-01
3.73687e-02, 4.50839e-02, 4.12263e-02, 4.97782e-03, 6.45193e-01
4.50839e-02, 5.43422e-02, 4.97131e-02, 5.90755e-03, 6.38083e-01
5.43422e-02, 6.54521e-02, 5.98972e-02, 6.99534e-03, 6.29647e-01
6.54521e-02, 7.87841e-02, 7.21181e-02, 8.26261e-03, 6.19761e-01
7.87841e-02, 9.47824e-02, 8.67832e-02, 9.72843e-03, 6.08091e-01
9.47824e-02, 1.13980e-01, 1.04381e-01, 1.14121e-02, 5.94444e-01
1.13980e-01, 1.37018e-01, 1.25499e-01, 1.33283e-02, 5.78547e-01
1.37018e-01, 1.64663e-01, 1.50840e-01, 1.54850e-02, 5.60136e-01
1.64663e-01, 1.97837e-01, 1.81250e-01, 1.78795e-02, 5.38961e-01
1.97837e-01, 2.37646e-01, 2.17742e-01, 2.04939e-02, 5.14806e-01
2.37646e-01, 2.85417e-01, 2.61531e-01, 2.32741e-02, 4.87205e-01
2.85417e-01, 3.42742e-01, 3.14079e-01, 2.62030e-02, 4.57098e-01
3.42742e-01, 4.11531e-01, 3.77136e-01, 2.91233e-02, 4.23367e-01
4.11531e-01, 4.94079e-01, 4.52805e-01, 3.19401e-02, 3.86928e-01
4.94079e-01, 5.93136e-01, 5.43608e-01, 3.44816e-02, 3.48097e-01
5.93136e-01, 7.12005e-01, 6.52571e-01, 3.65785e-02, 3.07721e-01
7.12005e-01, 8.54648e-01, 7.83326e-01, 3.80312e-02, 2.66619e-01
8.54648e-01, 1.02582e+00, 9.40233e-01, 3.86829e-02, 2.25990e-01
1.02582e+00, 1.23122e+00, 1.12852e+00, 3.84190e-02, 1.87040e-01
1.23122e+00, 1.47771e+00, 1.35447e+00, 3.72060e-02, 1.50945e-01
1.47771e+00, 1.77349e+00, 1.62560e+00, 3.51015e-02, 1.18673e-01
1.77349e+00, 2.12843e+00, 1.95096e+00, 3.22517e-02, 9.08652e-02
2.12843e+00, 2.55436e+00, 2.34140e+00, 2.88622e-02, 6.77630e-02
2.55436e+00, 3.06548e+00, 2.80992e+00, 2.51603e-02, 4.92264e-02
3.06548e+00, 3.67881e+00, 3.37214e+00, 2.13571e-02, 3.48212e-02
3.67881e+00, 4.41482e+00, 4.04681e+00, 1.76289e-02, 2.39521e-02
4.41482e+00, 5.29802e+00, 4.85642e+00, 1.41106e-02, 1.59766e-02
5.29802e+00, 6.35787e+00, 5.82794e+00, 1.09052e-02, 1.02894e-02
6.35787e+00, 7.62968e+00, 6.99378e+00, 8.08882e-03, 6.36006e-03
7.62968e+00, 9.15586e+00, 8.39277e+00, 5.71370e-03, 3.74380e-03
9.15586e+00, 1.09873e+01, 1.00716e+01, 3.80564e-03, 2.07798e-03
1.09873e+01, 1.31850e+01, 1.20861e+01, 2.36065e-03, 1.07415e-03
1.31850e+01, 1.58222e+01, 1.45036e+01, 1.34281e-03, 5.09175e-04
1.58222e+01, 1.89869e+01, 1.74045e+01, 6.87239e-04, 2.17159e-04
1.89869e+01, 2.27845e+01, 2.08857e+01, 3.09195e-04, 8.14180e-05
2.27845e+01, 2.73417e+01, 2.50631e+01, 1.18948e-04, 2.61013e-05
2.73417e+01, 3.28102e+01, 3.00759e+01, 3.78793e-05, 6.92672e-06
3.28102e+01, 3.93725e+01, 3.60914e+01, 9.62099e-06, 1.46610e-06
3.93725e+01, 4.72473e+01, 4.33099e+01, 1.86868e-06, 2.37300e-07
4.72473e+01, 5.66969e+01, 5.19721e+01, 2.64740e-07, 2.80157e-08
5.66969e+01, 6.80366e+01, 6.23668e+01, 2.59466e-08, 2.28814e-09
6.80366e+01, 8.16441e+01, 7.48404e+01, 1.65791e-09, 1.21838e-10
8.16441e+01, 9.79732e+01, 8.98087e+01, 6.46239e-11, 3.95760e-12
9.79732e+01, 1.17568e+02, 1.07771e+02, 1.42641e-12, 7.27949e-14
1.17568e+02, 1.41082e+02, 1.29325e+02, 1.64077e-14, 6.97789e-16
1.41082e+02, 1.69299e+02, 1.55190e+02, 8.97242e-17, 3.17983e-18
1.69299e+02, 2.03159e+02, 1.86229e+02, 2.10968e-19, 6.23060e-21
2.03159e+02, 2.43790e+02, 2.23475e+02, 1.91290e-22, 4.70787e-24
2.43790e+02, 2.92549e+02, 2.68170e+02, 5.93528e-26, 1.21729e-27
2.92549e+02, 3.51059e+02, 3.21804e+02, 5.48896e-30, 9.38124e-32
3.51059e+02, 4.21271e+02, 3.86165e+02, 1.27475e-34, 1.81557e-36
4.21271e+02, 5.05525e+02, 4.63398e+02, 5.96419e-40, 7.07879e-42
5.05525e+02, 6.06631e+02, 5.56078e+02, 4.25251e-46, 4.20602e-48
6.06631e+02, 7.27957e+02, 6.67294e+02, 3.28115e-53, 2.70440e-55
7.27957e+02, 8.73548e+02, 8.00753e+02, 1.81838e-61, 1.24896e-63
8.73548e+02, 1.04826e+03, 9.60903e+02, 4.45948e-71, 2.55251e-73
1.04826e+03, 1.25791e+03, 1.15308e+03, 2.74294e-82, 1.30833e-84
1.25791e+03, 1.50949e+03, 1.38370e+03, 2.18342e-95, 8.67874e-98
1.50949e+03, 1.81139e+03, 1.66044e+03, 1.04560e-110, 3.46342e-113
1.81139e+03, 2.17367e+03, 1.99253e+03, 1.24859e-128, 3.44649e-131
2.17367e+03, 2.60840e+03, 2.39104e+03, 1.36091e-149, 3.13045e-152
2.60840e+03, 3.13009e+03, 2.86924e+03, 4.33519e-174, 8.31005e-177
3.13009e+03, 3.75610e+03, 3.44309e+03, 1.11603e-202, 1.78275e-205
3.75610e+03, 4.50732e+03, 4.13171e+03, 5.41805e-236, 7.21233e-239
4.50732e+03, 5.40879e+03, 4.95806e+03, 9.37655e-275, 1.04015e-277
5.40879e+03, 6.49055e+03, 5.94967e+03, 8.34773e-320, 7.90505e-323
6.49055e+03, 7.78866e+03, 7.13960e+03, 0.00000e+00, 0.00000e+00
7.78866e+03, 9.34639e+03, 8.56752e+03, 0.00000e+00, 0.00000e+00
9.34639e+03, 1.12157e+04, 1.02810e+04, 0.00000e+00, 0.00000e+00
1.12157e+04, 1.34588e+04, 1.23372e+04, 0.00000e+00, 0.00000e+00
1.34588e+04, 1.61506e+04, 1.48047e+04, 0.00000e+00, 0.00000e+00
1.61506e+04, 1.93807e+04, 1.77656e+04, 0.00000e+00, 0.00000e+00
1.93807e+04, 2.32568e+04, 2.13187e+04, 0.00000e+00, 0.00000e+00
2.32568e+04, 2.79082e+04, 2.55825e+04, 0.00000e+00, 0.00000e+00
2.79082e+04, 3.34898e+04, 3.06990e+04, 0.00000e+00, 0.00000e+00
3.34898e+04, 4.01878e+04, 3.68388e+04, 0.00000e+00, 0.00000e+00
4.01878e+04, 4.82253e+04, 4.42065e+04, 0.00000e+00, 0.00000e+00
4.82253e+04, 5.78704e+04, 5.30478e+04, 0.00000e+00, 0.00000e+00
5.78704e+04, 6.94444e+04, 6.36574e+04, 0.00000e+00, 0.00000e+00
6.94444e+04, 8.33333e+04, 7.63889e+04, 0.00000e+00, 0.00000e+00
8.33333e+04, 1.00000e+05, 9.16667e+04, 0.00000e+00, 0.00000e+00
