# time = 6.300000000000000e-01# start, end, pivot, particles, density
0.00000e+00, 2.41493e-04, 1.20747e-04, 1.27735e-04, 5.28938e-01
2.41493e-04, 5.31286e-04, 3.86390e-04, 1.53222e-04, 5.28731e-01
5.31286e-04, 8.79036e-04, 7.05161e-04, 1.83780e-04, 5.28482e-01
8.79036e-04, 1.29634e-03, 1.08769e-03, 2.20412e-04, 5.28185e-01
1.29634e-03, 1.79710e-03, 1.54672e-03, 2.64316e-04, 5.27828e-01
1.79710e-03, 2.39801e-03, 2.09755e-03, 3.16922e-04, 5.27400e-01
2.39801e-03, 3.11911e-03, 2.75856e-03, 3.79936e-04, 5.26887e-01
3.11911e-03, 3.98442e-03, 3.55176e-03, 4.55392e-04, 5.26273e-01
3.98442e-03, 5.02280e-03, 4.50361e-03, 5.45705e-04, 5.25536e-01
5.02280e-03, 6.26885e-03, 5.64583e-03, 6.53746e-04, 5.24654e-01
6.26885e-03, 7.76412e-03, 7.01648e-03, 7.82918e-04, 5.23598e-01
7.76412e-03, 9.55843e-03, 8.66127e-03, 9.37231e-04, 5.22333e-01
9.55843e-03, 1.17116e-02, 1.06350e-02, 1.12142e-03, 5.20822e-01
1.17116e-02, 1.42954e-02, 1.30035e-02, 1.34104e-03, 5.19014e-01
1.42954e-02, 1.73960e-02, 1.58457e-02, 1.60255e-03, 5.16856e-01
1.73960e-02, 2.11167e-02, 1.92564e-02, 1.91347e-03, 5.14278e-01
2.11167e-02, 2.55815e-02, 2.33491e-02, 2.28248e-03, 5.11212e-01
2.55815e-02, 3.09393e-02, 2.82604e-02, 2.71937e-03, 5.07553e-01
3.09393e-02, 3.73687e-02, 3.41540e-02, 3.23534e-03, 5.03213e-01
3.73687e-02, 4.50839e-02, 4.12263e-02, 3.84265e-03, 4.98060e-01
4.50839e-02, 5.43422e-02, 4.97131e-02, 4.55472e-03, 4.91962e-01
5.43422e-02, 6.54521e-02, 5.98972e-02, 5.38537e-03, 4.84735e-01
6.54521e-02, 7.87841e-02, 7.21181e-02, 6.35005e-03, 4.76304e-01
7.87841e-02, 9.47824e-02, 8.67832e-02, 7.46109e-03, 4.66368e-01
9.47824e-02, 1.13980e-01, 1.04381e-01, 8.73110e-03, 4.54793e-01
1.13980e-01, 1.37018e-01, 1.25499e-01, 1.01680e-02, 4.41367e-01
1.37018e-01, 1.64663e-01, 1.50840e-01, 1.17739e-02, 4.25896e-01
1.64663e-01, 1.97837e-01, 1.81250e-01, 1.35419e-02, 4.08208e-01
1.97837e-01, 2.37646e-01, 2.17742e-01, 1.54527e-02, 3.88171e-01
2.37646e-01, 2.85417e-01, 2.61531e-01, 1.74544e-02, 3.65378e-01
2.85417e-01, 3.42742e-01, 3.14079e-01, 1.95452e-02, 3.40955e-01
3.42742e-01, 4.11531e-01, 3.77136e-01, 2.15819e-02, 3.13737e-01
4.11531e-01, 4.94079e-01, 4.52805e-01, 2.35059e-02, 2.84755e-01
4.94079e-01, 5.93136e-01, 5.43608e-01, 2.51922e-02, 2.54319e-01
5.93136e-01, 7.12005e-01, 6.52571e-01, 2.65322e-02, 2.23206e-01
7.12005e-01, 8.54648e-01, 7.83326e-01, 2.74032e-02, 1.92111e-01
8.54648e-01, 1.02582e+00, 9.40233e-01, 2.77266e-02, 1.61982e-01
1.02582e+00, 1.23122e+00, 1.12852e+00, 2.74610e-02, 1.33692e-01
1.23122e+00, 1.47771e+00, 1.35447e+00, 2.66227e-02, 1.08009e-01
1.47771e+00, 1.77349e+00, 1.62560e+00, 2.52808e-02, 8.54705e-02
1.77349e+00, 2.12843e+00, 1.95096e+00, 2.35457e-02, 6.63371e-02
2.12843e+00, 2.55436e+00, 2.34140e+00, 2.15430e-02, 5.05790e-02
2.55436e+00, 3.06548e+00, 2.80992e+00, 1.93913e-02, 3.79394e-02
3.06548e+00, 3.67881e+00, 3.37214e+00, 1.71849e-02, 2.80186e-02
3.67881e+00, 4.41482e+00, 4.04681e+00, 1.49938e-02, 2.03720e-02
4.41482e+00, 5.29802e+00, 4.85642e+00, 1.28658e-02, 1.45671e-02
5.29802e+00, 6.35787e+00, 5.82794e+00, 1.08363e-02, 1.02244e-02
6.35787e+00, 7.62968e+00, 6.99378e+00, 8.93335e-03, 7.02409e-03
7.62968e+00, 9.15586e+00, 8.39277e+00, 7.18158e-03, 4.70560e-03
9.15586e+00, 1.09873e+01, 1.00716e+01, 5.60356e-03, 3.05969e-03
1.09873e+01, 1.31850e+01, 1.20861e+01, 4.21789e-03, 1.91923e-03
1.31850e+01, 1.58222e+01, 1.45036e+01, 3.03456e-03, 1.15066e-03
1.58222e+01, 1.89869e+01, 1.74045e+01, 2.06883e-03, 6.53726e-04
1.89869e+01, 2.27845e+01, 2.08857e+01, 1.32096e-03, 3.47839e-04
2.27845e+01, 2.73417e+01, 2.50631e+01, 7.78407e-04, 1.70810e-04
2.73417e+01, 3.28102e+01, 3.00759e+01, 4.15667e-04, 7.60101e-05
3.28102e+01, 3.93725e+01, 3.60914e+01, 1.95925e-04, 2.98562e-05
3.93725e+01, 4.72473e+01, 4.33099e+01, 7.93917e-05, 1.00818e-05
4.72473e+01, 5.66969e+01, 5.19721e+01, 2.69624e-05, 2.85326e-06
5.66969e+01, 6.80366e+01, 6.23668e+01, 7.39269e-06, 6.51934e-07
6.80366e+01, 8.16441e+01, 7.48404e+01, 1.57274e-06, 1.15578e-07
8.16441e+01, 9.79732e+01, 8.98087e+01, 2.48246e-07, 1.52027e-08
9.79732e+01, 1.17568e+02, 1.07771e+02, 2.76423e-08, 1.41069e-09
1.17568e+02, 1.41082e+02, 1.29325e+02, 2.05228e-09, 8.72798e-11
1.41082e+02, 1.69299e+02, 1.55190e+02, 9.53649e-11, 3.37974e-12
1.69299e+02, 2.03159e+02, 1.86229e+02, 2.58462e-12, 7.63326e-14
2.03159e+02, 2.43790e+02, 2.23475e+02, 3.77715e-14, 9.29602e-16
2.43790e+02, 2.92549e+02, 2.68170e+02, 2.72911e-16, 5.59721e-18
2.92549e+02, 3.51059e+02, 3.21804e+02, 8.86758e-19, 1.51557e-20
3.51059e+02, 4.21271e+02, 3.86165e+02, 1.16901e-21, 1.66497e-23
4.21271e+02, 5.05525e+02, 4.63398e+02, 5.58373e-25, 6.62723e-27
5.05525e+02, 6.06631e+02, 5.56078e+02, 8.51034e-29, 8.41731e-31
6.06631e+02, 7.27957e+02, 6.67294e+02, 3.54399e-33, 2.92104e-35
7.27957e+02, 8.73548e+02, 8.00753e+02, 3.30091e-38, 2.26724e-40
8.73548e+02, 1.04826e+03, 9.60903e+02, 5.33180e-44, 3.05180e-46
1.04826e+03, 1.25791e+03, 1.15308e+03, 1.09159e-50, 5.20669e-53
1.25791e+03, 1.50949e+03, 1.38370e+03, 1.94446e-58, 7.72894e-61
1.50949e+03, 1.81139e+03, 1.66044e+03, 1.93198e-67, 6.39942e-70
1.81139e+03, 2.17367e+03, 1.99253e+03, 6.35834e-78, 1.75510e-80
2.17367e+03, 2.60840e+03, 2.39104e+03, 3.77835e-90, 8.69117e-93
2.60840e+03, 3.13009e+03, 2.86924e+03, 2.00832e-104, 3.84970e-107
3.13009e+03, 3.75610e+03, 3.44309e+03, 4.25837e-121, 6.80232e-124
3.75610e+03, 4.50732e+03, 4.13171e+03, 1.43338e-140, 1.90807e-143
4.50732e+03, 5.40879e+03, 4.95806e+03, 2.69628e-163, 2.99100e-166
5.40879e+03, 6.49055e+03, 5.94967e+03, 8.73208e-190, 8.07212e-193
6.49055e+03, 7.78866e+03, 7.13960e+03, 1.29238e-220, 9.95589e-224
7.78866e+03, 9.34639e+03, 8.56752e+03, 1.93143e-256, 1.23990e-259
9.34639e+03, 1.12157e+04, 1.02810e+04, 5.08742e-298, 2.72159e-301
1.12157e+04, 1.34588e+04, 1.23372e+04, 0.00000e+00, 0.00000e+00
1.34588e+04, 1.61506e+04, 1.48047e+04, 0.00000e+00, 0.00000e+00
1.61506e+04, 1.93807e+04, 1.77656e+04, 0.00000e+00, 0.00000e+00
1.93807e+04, 2.32568e+04, 2.13187e+04, 0.00000e+00, 0.00000e+00
2.32568e+04, 2.79082e+04, 2.55825e+04, 0.00000e+00, 0.00000e+00
2.79082e+04, 3.34898e+04, 3.06990e+04, 0.00000e+00, 0.00000e+00
3.34898e+04, 4.01878e+04, 3.68388e+04, 0.00000e+00, 0.00000e+00
4.01878e+04, 4.82253e+04, 4.42065e+04, 0.00000e+00, 0.00000e+00
4.82253e+04, 5.78704e+04, 5.30478e+04, 0.00000e+00, 0.00000e+00
5.78704e+04, 6.94444e+04, 6.36574e+04, 0.00000e+00, 0.00000e+00
6.94444e+04, 8.33333e+04, 7.63889e+04, 0.00000e+00, 0.00000e+00
8.33333e+04, 1.00000e+05, 9.16667e+04, 0.00000e+00, 0.00000e+00
