# time = 1.000000000000000e+00# start, end, pivot, particles, density
0.00000e+00, 2.41493e-04, 1.20747e-04, 2.41464e-04, 9.99879e-01
2.41493e-04, 5.31286e-04, 3.86390e-04, 1.05413e-04, 3.63753e-01
5.31286e-04, 8.79036e-04, 7.05161e-04, 1.26429e-04, 3.63563e-01
8.79036e-04, 1.29634e-03, 1.08769e-03, 1.51620e-04, 3.63336e-01
1.29634e-03, 1.79710e-03, 1.54672e-03, 1.81808e-04, 3.63063e-01
1.79710e-03, 2.39801e-03, 2.09755e-03, 2.17972e-04, 3.62735e-01
2.39801e-03, 3.11911e-03, 2.75856e-03, 2.61284e-04, 3.62343e-01
3.11911e-03, 3.98442e-03, 3.55176e-03, 3.13134e-04, 3.61873e-01
3.98442e-03, 5.02280e-03, 4.50361e-03, 3.75176e-04, 3.61309e-01
5.02280e-03, 6.26885e-03, 5.64583e-03, 4.49371e-04, 3.60635e-01
6.26885e-03, 7.76412e-03, 7.01648e-03, 5.38038e-04, 3.59828e-01
7.76412e-03, 9.55843e-03, 8.66127e-03, 6.43913e-04, 3.58862e-01
9.55843e-03, 1.17116e-02, 1.06350e-02, 7.70209e-04, 3.57708e-01
1.17116e-02, 1.42954e-02, 1.30035e-02, 9.20687e-04, 3.56328e-01
1.42954e-02, 1.73960e-02, 1.58457e-02, 1.09972e-03, 3.54682e-01
1.73960e-02, 2.11167e-02, 1.92564e-02, 1.31236e-03, 3.52719e-01
2.11167e-02, 2.55815e-02, 2.33491e-02, 1.56439e-03, 3.50381e-01
2.55815e-02, 3.09393e-02, 2.82604e-02, 1.86238e-03, 3.47601e-01
3.09393e-02, 3.73687e-02, 3.41540e-02, 2.21363e-03, 3.44301e-01
3.73687e-02, 4.50839e-02, 4.12263e-02, 2.62621e-03, 3.40393e-01
4.50839e-02, 5.43422e-02, 4.97131e-02, 3.10871e-03, 3.35776e-01
5.43422e-02, 6.54521e-02, 5.98972e-02, 3.67005e-03, 3.30339e-01
6.54521e-02, 7.87841e-02, 7.21181e-02, 4.31901e-03, 3.23960e-01
7.87841e-02, 9.47824e-02, 8.67832e-02, 5.06360e-03, 3.16508e-01
9.47824e-02, 1.13980e-01, 1.04381e-01, 5.91007e-03, 3.07849e-01
1.13980e-01, 1.37018e-01, 1.25499e-01, 6.86171e-03, 2.97849e-01
1.37018e-01, 1.64663e-01, 1.50840e-01, 7.91716e-03, 2.86386e-01
1.64663e-01, 1.97837e-01, 1.81250e-01, 9.06851e-03, 2.73361e-01
1.97837e-01, 2.37646e-01, 2.17742e-01, 1.02991e-02, 2.58714e-01
2.37646e-01, 2.85417e-01, 2.61531e-01, 1.15816e-02, 2.42441e-01
2.85417e-01, 3.42742e-01, 3.14079e-01, 1.28763e-02, 2.24619e-01
3.42742e-01, 4.11531e-01, 3.77136e-01, 1.41309e-02, 2.05421e-01
4.11531e-01, 4.94079e-01, 4.52805e-01, 1.52824e-02, 1.85134e-01
4.94079e-01, 5.93136e-01, 5.43608e-01, 1.62613e-02, 1.64161e-01
5.93136e-01, 7.12005e-01, 6.52571e-01, 1.69994e-02, 1.43010e-01
7.12005e-01, 8.54648e-01, 7.83326e-01, 1.74395e-02, 1.22260e-01
8.54648e-01, 1.02582e+00, 9.40233e-01, 1.75466e-02, 1.02509e-01
1.02582e+00, 1.23122e+00, 1.12852e+00, 1.73157e-02, 8.43001e-02
1.23122e+00, 1.47771e+00, 1.35447e+00, 1.67746e-02, 6.80548e-02
1.47771e+00, 1.77349e+00, 1.62560e+00, 1.59784e-02, 5.40207e-02
1.77349e+00, 2.12843e+00, 1.95096e+00, 1.49976e-02, 4.22540e-02
2.12843e+00, 2.55436e+00, 2.34140e+00, 1.39029e-02, 3.26414e-02
2.55436e+00, 3.06548e+00, 2.80992e+00, 1.27536e-02, 2.49525e-02
3.06548e+00, 3.67881e+00, 3.37214e+00, 1.15926e-02, 1.89008e-02
3.67881e+00, 4.41482e+00, 4.04681e+00, 1.04474e-02, 1.41948e-02
4.41482e+00, 5.29802e+00, 4.85642e+00, 9.33479e-03, 1.05692e-02
5.29802e+00, 6.35787e+00, 5.82794e+00, 8.26479e-03, 7.79810e-03
6.35787e+00, 7.62968e+00, 6.99378e+00, 7.24398e-03, 5.69578e-03
7.62968e+00, 9.15586e+00, 8.39277e+00, 6.27721e-03, 4.11303e-03
9.15586e+00, 1.09873e+01, 1.00716e+01, 5.36865e-03, 2.93142e-03
1.09873e+01, 1.31850e+01, 1.20861e+01, 4.52237e-03, 2.05778e-03
1.31850e+01, 1.58222e+01, 1.45036e+01, 3.74264e-03, 1.41915e-03
1.58222e+01, 1.89869e+01, 1.74045e+01, 3.03388e-03, 9.58669e-04
1.89869e+01, 2.27845e+01, 2.08857e+01, 2.40044e-03, 6.32091e-04
2.27845e+01, 2.73417e+01, 2.50631e+01, 1.84608e-03, 4.05096e-04
2.73417e+01, 3.28102e+01, 3.00759e+01, 1.37334e-03, 2.51133e-04
3.28102e+01, 3.93725e+01, 3.60914e+01, 9.82772e-04, 1.49761e-04
3.93725e+01, 4.72473e+01, 4.33099e+01, 6.72207e-04, 8.53625e-05
4.72473e+01, 5.66969e+01, 5.19721e+01, 4.36312e-04, 4.61721e-05
5.66969e+01, 6.80366e+01, 6.23668e+01, 2.66585e-04, 2.35091e-05
6.80366e+01, 8.16441e+01, 7.48404e+01, 1.51977e-04, 1.11686e-05
8.16441e+01, 9.79732e+01, 8.98087e+01, 8.00758e-05, 4.90388e-06
9.79732e+01, 1.17568e+02, 1.07771e+02, 3.86097e-05, 1.97040e-06
1.17568e+02, 1.41082e+02, 1.29325e+02, 1.68676e-05, 7.17349e-07
1.41082e+02, 1.69299e+02, 1.55190e+02, 6.61502e-06, 2.34437e-07
1.69299e+02, 2.03159e+02, 1.86229e+02, 2.31059e-06, 6.82397e-08
2.03159e+02, 2.43790e+02, 2.23475e+02, 7.15072e-07, 1.75988e-08
2.43790e+02, 2.92549e+02, 2.68170e+02, 1.95790e-07, 4.01552e-09
2.92549e+02, 3.51059e+02, 3.21804e+02, 4.75936e-08, 8.13426e-10
3.51059e+02, 4.21271e+02, 3.86165e+02, 1.03606e-08, 1.47562e-10
4.21271e+02, 5.05525e+02, 4.63398e+02, 2.04598e-09, 2.42834e-11
5.05525e+02, 6.06631e+02, 5.56078e+02, 3.71954e-10, 3.67888e-12
6.06631e+02, 7.27957e+02, 6.67294e+02, 6.31075e-11, 5.20147e-13
7.27957e+02, 8.73548e+02, 8.00753e+02, 1.00989e-11, 6.93644e-14
8.73548e+02, 1.04826e+03, 9.60903e+02, 1.53507e-12, 8.78637e-15
1.04826e+03, 1.25791e+03, 1.15308e+03, 2.22582e-13, 1.06168e-15
1.25791e+03, 1.50949e+03, 1.38370e+03, 3.08632e-14, 1.22676e-16
1.50949e+03, 1.81139e+03, 1.66044e+03, 4.09859e-15, 1.35760e-17
1.81139e+03, 2.17367e+03, 1.99253e+03, 5.21819e-16, 1.44038e-18
2.17367e+03, 2.60840e+03, 2.39104e+03, 6.37441e-17, 1.46628e-19
2.60840e+03, 3.13009e+03, 2.86924e+03, 7.47621e-18, 1.43310e-20
3.13009e+03, 3.75610e+03, 3.44309e+03, 8.42358e-19, 1.34558e-21
3.75610e+03, 4.50732e+03, 4.13171e+03, 9.12239e-20, 1.21434e-22
4.50732e+03, 5.40879e+03, 4.95806e+03, 9.49987e-21, 1.05383e-23
5.40879e+03, 6.49055e+03, 5.94967e+03, 9.51710e-22, 8.79781e-25
6.49055e+03, 7.78866e+03, 7.13960e+03, 9.17556e-23, 7.06840e-26
7.78866e+03, 9.34639e+03, 8.56752e+03, 8.51625e-24, 5.46709e-27
9.34639e+03, 1.12157e+04, 1.02810e+04, 7.61176e-25, 4.07203e-28
1.12157e+04, 1.34588e+04, 1.23372e+04, 6.55332e-26, 2.92150e-29
1.34588e+04, 1.61506e+04, 1.48047e+04, 5.43606e-27, 2.01952e-30
1.61506e+04, 1.93807e+04, 1.77656e+04, 4.34559e-28, 1.34534e-31
1.93807e+04, 2.32568e+04, 2.13187e+04, 3.34841e-29, 8.63854e-33
2.32568e+04, 2.79082e+04, 2.55825e+04, 2.48730e-30, 5.34747e-34
2.79082e+04, 3.34898e+04, 3.06990e+04, 1.78148e-31, 3.19169e-35
3.34898e+04, 4.01878e+04, 3.68388e+04, 1.23041e-32, 1.83700e-36
4.01878e+04, 4.82253e+04, 4.42065e+04, 8.19566e-34, 1.01967e-37
4.82253e+04, 5.78704e+04, 5.30478e+04, 5.26518e-35, 5.45894e-39
5.78704e+04, 6.94444e+04, 6.36574e+04, 3.26262e-36, 2.81891e-40
6.94444e+04, 8.33333e+04, 7.63889e+04, 1.95013e-37, 1.40409e-41
8.33333e+04, 1.00000e+05, 9.16667e+04, 0.00000e+00, 0.00000e+00
