# time = 2.200000000000000e-01# start, end, pivot, particles, density
0.00000e+00, 2.41493e-04, 1.20747e-04, 1.93322e-04, 8.00525e-01
2.41493e-04, 5.31286e-04, 3.86390e-04, 2.31912e-04, 8.00270e-01
5.31286e-04, 8.79036e-04, 7.05161e-04, 2.78188e-04, 7.99964e-01
8.79036e-04, 1.29634e-03, 1.08769e-03, 3.33672e-04, 7.99597e-01
1.29634e-03, 1.79710e-03, 1.54672e-03, 4.00186e-04, 7.99157e-01
1.79710e-03, 2.39801e-03, 2.09755e-03, 4.79906e-04, 7.98629e-01
2.39801e-03, 3.11911e-03, 2.75856e-03, 5.75431e-04, 7.97995e-01
3.11911e-03, 3.98442e-03, 3.55176e-03, 6.89861e-04, 7.97237e-01
3.98442e-03, 5.02280e-03, 4.50361e-03, 8.26888e-04, 7.96327e-01
5.02280e-03, 6.26885e-03, 5.64583e-03, 9.90907e-04, 7.95237e-01
6.26885e-03, 7.76412e-03, 7.01648e-03, 1.18714e-03, 7.93931e-01
7.76412e-03, 9.55843e-03, 8.66127e-03, 1.42176e-03, 7.92367e-01
9.55843e-03, 1.17116e-02, 1.06350e-02, 1.70208e-03, 7.90495e-01
1.17116e-02, 1.42954e-02, 1.30035e-02, 2.03671e-03, 7.88255e-01
1.42954e-02, 1.73960e-02, 1.58457e-02, 2.43575e-03, 7.85578e-01
1.73960e-02, 2.11167e-02, 1.92564e-02, 2.91098e-03, 7.82376e-01
2.11167e-02, 2.55815e-02, 2.33491e-02, 3.47614e-03, 7.78559e-01
2.55815e-02, 3.09393e-02, 2.82604e-02, 4.14694e-03, 7.74000e-01
3.09393e-02, 3.73687e-02, 3.41540e-02, 4.94144e-03, 7.68575e-01
3.73687e-02, 4.50839e-02, 4.12263e-02, 5.87992e-03, 7.62119e-01
4.50839e-02, 5.43422e-02, 4.97131e-02, 6.98495e-03, 7.54454e-01
5.43422e-02, 6.54521e-02, 5.98972e-02, 8.28082e-03, 7.45352e-01
6.54521e-02, 7.87841e-02, 7.21181e-02, 9.79419e-03, 7.34642e-01
7.87841e-02, 9.47824e-02, 8.67832e-02, 1.15505e-02, 7.21985e-01
9.47824e-02, 1.13980e-01, 1.04381e-01, 1.35755e-02, 7.07133e-01
1.13980e-01, 1.37018e-01, 1.25499e-01, 1.58906e-02, 6.89771e-01
1.37018e-01, 1.64663e-01, 1.50840e-01, 1.85105e-02, 6.69577e-01
1.64663e-01, 1.97837e-01, 1.81250e-01, 2.14382e-02, 6.46234e-01
1.97837e-01, 2.37646e-01, 2.17742e-01, 2.46595e-02, 6.19446e-01
2.37646e-01, 2.85417e-01, 2.61531e-01, 2.81242e-02, 5.88734e-01
2.85417e-01, 3.42742e-01, 3.14079e-01, 3.17978e-02, 5.54695e-01
3.42742e-01, 4.11531e-01, 3.77136e-01, 3.55233e-02, 5.16404e-01
4.11531e-01, 4.94079e-01, 4.52805e-01, 3.91709e-02, 4.74524e-01
4.94079e-01, 5.93136e-01, 5.43608e-01, 4.25287e-02, 4.29334e-01
5.93136e-01, 7.12005e-01, 6.52571e-01, 4.53655e-02, 3.81644e-01
7.12005e-01, 8.54648e-01, 7.83326e-01, 4.74038e-02, 3.32326e-01
8.54648e-01, 1.02582e+00, 9.40233e-01, 4.83933e-02, 2.82719e-01
1.02582e+00, 1.23122e+00, 1.12852e+00, 4.81250e-02, 2.34293e-01
1.23122e+00, 1.47771e+00, 1.35447e+00, 4.64867e-02, 1.88598e-01
1.47771e+00, 1.77349e+00, 1.62560e+00, 4.34997e-02, 1.47066e-01
1.77349e+00, 2.12843e+00, 1.95096e+00, 3.93355e-02, 1.10823e-01
2.12843e+00, 2.55436e+00, 2.34140e+00, 3.42986e-02, 8.05266e-02
2.55436e+00, 3.06548e+00, 2.80992e+00, 2.87768e-02, 5.63022e-02
3.06548e+00, 3.67881e+00, 3.37214e+00, 2.31744e-02, 3.77841e-02
3.67881e+00, 4.41482e+00, 4.04681e+00, 1.78519e-02, 2.42552e-02
4.41482e+00, 5.29802e+00, 4.85642e+00, 1.30876e-02, 1.48183e-02
5.29802e+00, 6.35787e+00, 5.82794e+00, 9.06511e-03, 8.55324e-03
6.35787e+00, 7.62968e+00, 6.99378e+00, 5.87389e-03, 4.61851e-03
7.62968e+00, 9.15586e+00, 8.39277e+00, 3.51525e-03, 2.30330e-03
9.15586e+00, 1.09873e+01, 1.00716e+01, 1.91192e-03, 1.04396e-03
1.09873e+01, 1.31850e+01, 1.20861e+01, 9.26486e-04, 4.21572e-04
1.31850e+01, 1.58222e+01, 1.45036e+01, 3.90451e-04, 1.48053e-04
1.58222e+01, 1.89869e+01, 1.74045e+01, 1.39013e-04, 4.39265e-05
1.89869e+01, 2.27845e+01, 2.08857e+01, 4.04056e-05, 1.06397e-05
2.27845e+01, 2.73417e+01, 2.50631e+01, 9.21471e-06, 2.02204e-06
2.73417e+01, 3.28102e+01, 3.00759e+01, 1.57590e-06, 2.88174e-07
3.28102e+01, 3.93725e+01, 3.60914e+01, 1.92070e-07, 2.92687e-08
3.93725e+01, 4.72473e+01, 4.33099e+01, 1.57588e-08, 2.00118e-09
4.72473e+01, 5.66969e+01, 5.19721e+01, 8.16657e-10, 8.64216e-11
5.66969e+01, 6.80366e+01, 6.23668e+01, 2.48871e-11, 2.19470e-12
6.80366e+01, 8.16441e+01, 7.48404e+01, 4.11603e-13, 3.02481e-14
8.16441e+01, 9.79732e+01, 8.98087e+01, 3.37679e-15, 2.06796e-16
9.79732e+01, 1.17568e+02, 1.07771e+02, 1.24344e-17, 6.34574e-19
1.17568e+02, 1.41082e+02, 1.29325e+02, 1.84102e-20, 7.82951e-22
1.41082e+02, 1.69299e+02, 1.55190e+02, 9.71621e-24, 3.44344e-25
1.69299e+02, 2.03159e+02, 1.86229e+02, 1.59816e-27, 4.71991e-29
2.03159e+02, 2.43790e+02, 2.23475e+02, 6.99469e-32, 1.72148e-33
2.43790e+02, 2.92549e+02, 2.68170e+02, 6.68107e-37, 1.37024e-38
2.92549e+02, 3.51059e+02, 3.21804e+02, 1.07977e-42, 1.84544e-44
3.51059e+02, 4.21271e+02, 3.86165e+02, 2.14285e-49, 3.05197e-51
4.21271e+02, 5.05525e+02, 4.63398e+02, 3.52722e-57, 4.18639e-59
5.05525e+02, 6.06631e+02, 5.56078e+02, 3.00772e-66, 2.97483e-68
6.06631e+02, 7.27957e+02, 6.67294e+02, 7.60196e-77, 6.26571e-79
7.27957e+02, 8.73548e+02, 8.00753e+02, 2.95074e-89, 2.02672e-91
8.73548e+02, 1.04826e+03, 9.60903e+02, 8.14451e-104, 4.66173e-106
1.04826e+03, 1.25791e+03, 1.15308e+03, 6.51910e-121, 3.10949e-123
1.25791e+03, 1.50949e+03, 1.38370e+03, 5.34747e-141, 2.12554e-143
1.50949e+03, 1.81139e+03, 1.66044e+03, 1.35099e-164, 4.47497e-167
1.81139e+03, 2.17367e+03, 1.99253e+03, 2.62446e-192, 7.24432e-195
2.17367e+03, 2.60840e+03, 2.39104e+03, 7.86827e-225, 1.80990e-227
2.60840e+03, 3.13009e+03, 2.86924e+03, 5.62064e-263, 1.07741e-265
3.13009e+03, 3.75610e+03, 3.44309e+03, 1.08272e-307, 1.72954e-310
3.75610e+03, 4.50732e+03, 4.13171e+03, 0.00000e+00, 0.00000e+00
4.50732e+03, 5.40879e+03, 4.95806e+03, 0.00000e+00, 0.00000e+00
5.40879e+03, 6.49055e+03, 5.94967e+03, 0.00000e+00, 0.00000e+00
6.49055e+03, 7.78866e+03, 7.13960e+03, 0.00000e+00, 0.00000e+00
7.78866e+03, 9.34639e+03, 8.56752e+03, 0.00000e+00, 0.00000e+00
9.34639e+03, 1.12157e+04, 1.02810e+04, 0.00000e+00, 0.00000e+00
1.12157e+04, 1.34588e+04, 1.23372e+04, 0.00000e+00, 0.00000e+00
1.34588e+04, 1.61506e+04, 1.48047e+04, 0.00000e+00, 0.00000e+00
1.61506e+04, 1.93807e+04, 1.77656e+04, 0.00000e+00, 0.00000e+00
1.93807e+04, 2.32568e+04, 2.13187e+04, 0.00000e+00, 0.00000e+00
2.32568e+04, 2.79082e+04, 2.55825e+04, 0.00000e+00, 0.00000e+00
2.79082e+04, 3.34898e+04, 3.06990e+04, 0.00000e+00, 0.00000e+00
3.34898e+04, 4.01878e+04, 3.68388e+04, 0.00000e+00, 0.00000e+00
4.01878e+04, 4.82253e+04, 4.42065e+04, 0.00000e+00, 0.00000e+00
4.82253e+04, 5.78704e+04, 5.30478e+04, 0.00000e+00, 0.00000e+00
5.78704e+04, 6.94444e+04, 6.36574e+04, 0.00000e+00, 0.00000e+00
6.94444e+04, 8.33333e+04, 7.63889e+04, 0.00000e+00, 0.00000e+00
8.33333e+04, 1.00000e+05, 9.16667e+04, 0.00000e+00, 0.00000e+00
