# time = 9.000000000000000e+00# start, end, pivot, particles, density
0.00000e+00, 7.25710e-05, 3.62855e-05, 0.00000e+00, 0.00000e+00
7.25710e-05, 1.52399e-04, 1.12485e-04, 1.19282e-03, 1.49423e+01
1.52399e-04, 2.40210e-04, 1.96305e-04, 1.31210e-03, 1.49423e+01
2.40210e-04, 3.36802e-04, 2.88506e-04, 1.44331e-03, 1.49423e+01
3.36802e-04, 4.43053e-04, 3.89928e-04, 1.58764e-03, 1.49423e+01
4.43053e-04, 5.59929e-04, 5.01491e-04, 1.74640e-03, 1.49423e+01
5.59929e-04, 6.88493e-04, 6.24211e-04, 1.92104e-03, 1.49423e+01
6.88493e-04, 8.29914e-04, 7.59203e-04, 2.11314e-03, 1.49422e+01
8.29914e-04, 9.85476e-04, 9.07695e-04, 2.32444e-03, 1.49422e+01
9.85476e-04, 1.15659e-03, 1.07104e-03, 2.55688e-03, 1.49422e+01
1.15659e-03, 1.34482e-03, 1.25071e-03, 2.81256e-03, 1.49421e+01
1.34482e-03, 1.55188e-03, 1.44835e-03, 3.09380e-03, 1.49420e+01
1.55188e-03, 1.77964e-03, 1.66576e-03, 3.40316e-03, 1.49419e+01
1.77964e-03, 2.03017e-03, 1.90490e-03, 3.74345e-03, 1.49418e+01
2.03017e-03, 2.30576e-03, 2.16797e-03, 4.11775e-03, 1.49417e+01
2.30576e-03, 2.60891e-03, 2.45733e-03, 4.52948e-03, 1.49415e+01
2.60891e-03, 2.94237e-03, 2.77564e-03, 4.98235e-03, 1.49413e+01
2.94237e-03, 3.30918e-03, 3.12577e-03, 5.48048e-03, 1.49410e+01
3.30918e-03, 3.71267e-03, 3.51092e-03, 6.02840e-03, 1.49407e+01
3.71267e-03, 4.15650e-03, 3.93458e-03, 6.63105e-03, 1.49403e+01
4.15650e-03, 4.64472e-03, 4.40061e-03, 7.29391e-03, 1.49398e+01
4.64472e-03, 5.18177e-03, 4.91325e-03, 8.02296e-03, 1.49391e+01
5.18177e-03, 5.77252e-03, 5.47714e-03, 8.82480e-03, 1.49384e+01
5.77252e-03, 6.42234e-03, 6.09743e-03, 9.70667e-03, 1.49374e+01
6.42234e-03, 7.13714e-03, 6.77974e-03, 1.06765e-02, 1.49363e+01
7.13714e-03, 7.92343e-03, 7.53029e-03, 1.17431e-02, 1.49349e+01
7.92343e-03, 8.78834e-03, 8.35588e-03, 1.29159e-02, 1.49331e+01
8.78834e-03, 9.73975e-03, 9.26404e-03, 1.42055e-02, 1.49310e+01
9.73975e-03, 1.07863e-02, 1.02630e-02, 1.56233e-02, 1.49285e+01
1.07863e-02, 1.19375e-02, 1.13619e-02, 1.71821e-02, 1.49254e+01
1.19375e-02, 1.32038e-02, 1.25707e-02, 1.88955e-02, 1.49216e+01
1.32038e-02, 1.45968e-02, 1.39003e-02, 2.07786e-02, 1.49170e+01
1.45968e-02, 1.61290e-02, 1.53629e-02, 2.28479e-02, 1.49114e+01
1.61290e-02, 1.78145e-02, 1.69717e-02, 2.51212e-02, 1.49045e+01
1.78145e-02, 1.96685e-02, 1.87415e-02, 2.76180e-02, 1.48963e+01
1.96685e-02, 2.17079e-02, 2.06882e-02, 3.03593e-02, 1.48862e+01
2.17079e-02, 2.39513e-02, 2.28296e-02, 3.33679e-02, 1.48741e+01
2.39513e-02, 2.64190e-02, 2.51851e-02, 3.66683e-02, 1.48593e+01
2.64190e-02, 2.91335e-02, 2.77762e-02, 4.02866e-02, 1.48414e+01
2.91335e-02, 3.21194e-02, 3.06264e-02, 4.42505e-02, 1.48197e+01
3.21194e-02, 3.54039e-02, 3.37616e-02, 4.85893e-02, 1.47935e+01
3.54039e-02, 3.90168e-02, 3.72104e-02, 5.33335e-02, 1.47617e+01
3.90168e-02, 4.29911e-02, 4.10040e-02, 5.85141e-02, 1.47233e+01
4.29911e-02, 4.73628e-02, 4.51769e-02, 6.41623e-02, 1.46768e+01
4.73628e-02, 5.21716e-02, 4.97672e-02, 7.03086e-02, 1.46207e+01
5.21716e-02, 5.74614e-02, 5.48165e-02, 7.69810e-02, 1.45529e+01
5.74614e-02, 6.32801e-02, 6.03707e-02, 8.42036e-02, 1.44712e+01
6.32801e-02, 6.96806e-02, 6.64804e-02, 9.19938e-02, 1.43727e+01
6.96806e-02, 7.67213e-02, 7.32010e-02, 1.00359e-01, 1.42543e+01
7.67213e-02, 8.44660e-02, 8.05936e-02, 1.09293e-01, 1.41119e+01
8.44660e-02, 9.29852e-02, 8.87256e-02, 1.18768e-01, 1.39413e+01
9.29852e-02, 1.02356e-01, 9.76707e-02, 1.28731e-01, 1.37370e+01
1.02356e-01, 1.12664e-01, 1.07510e-01, 1.39090e-01, 1.34932e+01
1.12664e-01, 1.24003e-01, 1.18334e-01, 1.49710e-01, 1.32031e+01
1.24003e-01, 1.36476e-01, 1.30240e-01, 1.60391e-01, 1.28592e+01
1.36476e-01, 1.50197e-01, 1.43336e-01, 1.70863e-01, 1.24534e+01
1.50197e-01, 1.65289e-01, 1.57743e-01, 1.80763e-01, 1.19772e+01
1.65289e-01, 1.81890e-01, 1.73590e-01, 1.89626e-01, 1.14222e+01
1.81890e-01, 2.00152e-01, 1.91021e-01, 1.96874e-01, 1.07807e+01
2.00152e-01, 2.20240e-01, 2.10196e-01, 2.01816e-01, 1.00467e+01
2.20240e-01, 2.42336e-01, 2.31288e-01, 2.03669e-01, 9.21724e+00
2.42336e-01, 2.66642e-01, 2.54489e-01, 2.01599e-01, 8.29413e+00
2.66642e-01, 2.93379e-01, 2.80011e-01, 1.94809e-01, 7.28618e+00
2.93379e-01, 3.22790e-01, 3.08084e-01, 1.82678e-01, 6.21131e+00
3.22790e-01, 3.55141e-01, 3.38965e-01, 1.64945e-01, 5.09853e+00
3.55141e-01, 3.90728e-01, 3.72934e-01, 1.41950e-01, 3.98884e+00
3.90728e-01, 4.29873e-01, 4.10301e-01, 1.14845e-01, 2.93382e+00
4.29873e-01, 4.72933e-01, 4.51403e-01, 8.57241e-02, 1.99081e+00
4.72933e-01, 5.20299e-01, 4.96616e-01, 5.74825e-02, 1.21358e+00
5.20299e-01, 5.72401e-01, 5.46350e-01, 3.32968e-02, 6.39064e-01
5.72401e-01, 6.29714e-01, 6.01058e-01, 1.56822e-02, 2.73625e-01
6.29714e-01, 6.92758e-01, 6.61236e-01, 5.43353e-03, 8.61863e-02
6.92758e-01, 7.62106e-01, 7.27432e-01, 1.15529e-03, 1.66592e-02
7.62106e-01, 8.38390e-01, 8.00248e-01, 1.03639e-04, 1.35860e-03
8.38390e-01, 9.22301e-01, 8.80345e-01, 1.47745e-06, 1.76072e-05
9.22301e-01, 1.01460e+00, 9.68453e-01, 1.37340e-11, 1.48793e-10
1.01460e+00, 1.11614e+00, 1.06537e+00, 0.00000e+00, 0.00000e+00
1.11614e+00, 1.22782e+00, 1.17198e+00, 0.00000e+00, 0.00000e+00
1.22782e+00, 1.35068e+00, 1.28925e+00, 0.00000e+00, 0.00000e+00
1.35068e+00, 1.48582e+00, 1.41825e+00, 0.00000e+00, 0.00000e+00
1.48582e+00, 1.63447e+00, 1.56015e+00, 0.00000e+00, 0.00000e+00
1.63447e+00, 1.79799e+00, 1.71623e+00, 0.00000e+00, 0.00000e+00
1.79799e+00, 1.97786e+00, 1.88793e+00, 0.00000e+00, 0.00000e+00
1.97786e+00, 2.17572e+00, 2.07679e+00, 0.00000e+00, 0.00000e+00
2.17572e+00, 2.39337e+00, 2.28455e+00, 0.00000e+00, 0.00000e+00
2.39337e+00, 2.63278e+00, 2.51307e+00, 0.00000e+00, 0.00000e+00
2.63278e+00, 2.89613e+00, 2.76445e+00, 0.00000e+00, 0.00000e+00
2.89613e+00, 3.18581e+00, 3.04097e+00, 0.00000e+00, 0.00000e+00
3.18581e+00, 3.50447e+00, 3.34514e+00, 0.00000e+00, 0.00000e+00
3.50447e+00, 3.85499e+00, 3.67973e+00, 0.00000e+00, 0.00000e+00
3.85499e+00, 4.24056e+00, 4.04777e+00, 0.00000e+00, 0.00000e+00
4.24056e+00, 4.66469e+00, 4.45262e+00, 0.00000e+00, 0.00000e+00
4.66469e+00, 5.13123e+00, 4.89796e+00, 0.00000e+00, 0.00000e+00
5.13123e+00, 5.64442e+00, 5.38783e+00, 0.00000e+00, 0.00000e+00
5.64442e+00, 6.20894e+00, 5.92668e+00, 0.00000e+00, 0.00000e+00
6.20894e+00, 6.82990e+00, 6.51942e+00, 0.00000e+00, 0.00000e+00
6.82990e+00, 7.51297e+00, 7.17144e+00, 0.00000e+00, 0.00000e+00
7.51297e+00, 8.26434e+00, 7.88865e+00, 0.00000e+00, 0.00000e+00
8.26434e+00, 9.09084e+00, 8.67759e+00, 0.00000e+00, 0.00000e+00
9.09084e+00, 1.00000e+01, 9.54542e+00, 0.00000e+00, 0.00000e+00
