# time = 9.800000000000000e-01# start, end, pivot, particles, density
0.00000e+00, 1.45142e-05, 7.25710e-06, 6.11498e-14, 4.21310e-09
1.45142e-05, 3.04798e-05, 2.24970e-05, 0.00000e+00, 0.00000e+00
3.04798e-05, 4.80420e-05, 3.92609e-05, 4.94786e-09, 2.81734e-04
4.80420e-05, 6.73604e-05, 5.77012e-05, 2.34778e-07, 1.21531e-02
6.73604e-05, 8.86106e-05, 7.79855e-05, 0.00000e+00, 0.00000e+00
8.86106e-05, 1.11986e-04, 1.00298e-04, 2.14464e-02, 9.17483e+02
1.11986e-04, 1.37699e-04, 1.24842e-04, 2.29371e+00, 8.92049e+04
1.37699e-04, 1.65983e-04, 1.51841e-04, 0.00000e+00, 0.00000e+00
1.65983e-04, 1.97095e-04, 1.81539e-04, 0.00000e+00, 0.00000e+00
1.97095e-04, 2.31319e-04, 2.14207e-04, 1.42553e+07, 4.16531e+11
2.31319e-04, 2.68965e-04, 2.50142e-04, 3.47110e+08, 9.22034e+12
2.68965e-04, 3.10376e-04, 2.89670e-04, 0.00000e+00, 0.00000e+00
3.10376e-04, 3.55927e-04, 3.33152e-04, 9.27733e+12, 2.03666e+17
3.55927e-04, 4.06034e-04, 3.80981e-04, 5.09164e+14, 1.01615e+19
4.06034e-04, 4.61152e-04, 4.33593e-04, 0.00000e+00, 0.00000e+00
4.61152e-04, 5.21781e-04, 4.91467e-04, 0.00000e+00, 0.00000e+00
5.21781e-04, 5.88474e-04, 5.55128e-04, 1.99552e+20, 2.99212e+24
5.88474e-04, 6.61835e-04, 6.25155e-04, 0.00000e+00, 0.00000e+00
6.61835e-04, 7.42533e-04, 7.02184e-04, 0.00000e+00, 0.00000e+00
7.42533e-04, 8.31301e-04, 7.86917e-04, 2.03069e+25, 2.28765e+29
8.31301e-04, 9.28945e-04, 8.80123e-04, 0.00000e+00, 0.00000e+00
9.28945e-04, 1.03635e-03, 9.82649e-04, 0.00000e+00, 0.00000e+00
1.03635e-03, 1.15450e-03, 1.09543e-03, 1.59049e+30, 1.34617e+34
1.15450e-03, 1.28447e-03, 1.21949e-03, 1.68271e+31, 1.29474e+35
1.28447e-03, 1.42743e-03, 1.35595e-03, 0.00000e+00, 0.00000e+00
1.42743e-03, 1.58469e-03, 1.50606e-03, 3.23451e+34, 2.05683e+38
1.58469e-03, 1.75767e-03, 1.67118e-03, 5.14207e+35, 2.97259e+39
1.75767e-03, 1.94795e-03, 1.85281e-03, 0.00000e+00, 0.00000e+00
1.94795e-03, 2.15726e-03, 2.05260e-03, 2.92915e+38, 1.39944e+42
2.15726e-03, 2.38750e-03, 2.27238e-03, 3.49859e+39, 1.51954e+43
2.38750e-03, 2.64076e-03, 2.51413e-03, 0.00000e+00, 0.00000e+00
2.64076e-03, 2.91935e-03, 2.78006e-03, 9.99971e+41, 3.58939e+45
2.91935e-03, 3.22580e-03, 3.07258e-03, 8.97348e+42, 2.92821e+46
3.22580e-03, 3.56290e-03, 3.39435e-03, 0.00000e+00, 0.00000e+00
3.56290e-03, 3.93370e-03, 3.74830e-03, 1.35728e+45, 3.66038e+48
3.93370e-03, 4.34159e-03, 4.13764e-03, 9.15095e+45, 2.24352e+49
4.34159e-03, 4.79026e-03, 4.56592e-03, 0.00000e+00, 0.00000e+00
4.79026e-03, 5.28380e-03, 5.03703e-03, 7.50051e+47, 1.51974e+51
5.28380e-03, 5.82669e-03, 5.55524e-03, 3.79934e+48, 6.99832e+51
5.82669e-03, 6.42388e-03, 6.12528e-03, 0.00000e+00, 0.00000e+00
6.42388e-03, 7.08078e-03, 6.75233e-03, 1.70900e+50, 2.60161e+53
7.08078e-03, 7.80337e-03, 7.44207e-03, 6.50403e+50, 9.00097e+53
7.80337e-03, 8.59822e-03, 8.20079e-03, 0.00000e+00, 0.00000e+00
8.59822e-03, 9.47256e-03, 9.03539e-03, 1.61773e+52, 1.85024e+55
9.47256e-03, 1.04343e-02, 9.95344e-03, 4.62559e+52, 4.80945e+55
1.04343e-02, 1.14923e-02, 1.09633e-02, 0.00000e+00, 0.00000e+00
1.14923e-02, 1.26560e-02, 1.20741e-02, 6.39285e+53, 5.49336e+56
1.26560e-02, 1.39361e-02, 1.32961e-02, 0.00000e+00, 0.00000e+00
1.39361e-02, 1.53443e-02, 1.46402e-02, 0.00000e+00, 0.00000e+00
1.53443e-02, 1.68932e-02, 1.61187e-02, 1.05817e+55, 6.83156e+57
1.68932e-02, 1.85970e-02, 1.77451e-02, 0.00000e+00, 0.00000e+00
1.85970e-02, 2.04712e-02, 1.95341e-02, 0.00000e+00, 0.00000e+00
2.04712e-02, 2.25329e-02, 2.15021e-02, 6.64212e+55, 3.22177e+58
2.25329e-02, 2.48007e-02, 2.36668e-02, 0.00000e+00, 0.00000e+00
2.48007e-02, 2.72953e-02, 2.60480e-02, 7.05595e+55, 2.82851e+58
2.72953e-02, 3.00393e-02, 2.86673e-02, 1.07746e+56, 3.92654e+58
3.00393e-02, 3.30578e-02, 3.15485e-02, 0.00000e+00, 0.00000e+00
3.30578e-02, 3.63781e-02, 3.47179e-02, 1.91839e+56, 5.77778e+58
3.63781e-02, 4.00304e-02, 3.82042e-02, 1.42630e+56, 3.90519e+58
4.00304e-02, 4.40479e-02, 4.20391e-02, 0.00000e+00, 0.00000e+00
4.40479e-02, 4.84672e-02, 4.62576e-02, 2.54831e+56, 5.76632e+58
4.84672e-02, 5.33285e-02, 5.08978e-02, 1.06458e+56, 2.18993e+58
5.33285e-02, 5.86758e-02, 5.60021e-02, 2.26176e+55, 4.22968e+57
5.86758e-02, 6.45579e-02, 6.16169e-02, 1.89544e+56, 3.22239e+58
6.45579e-02, 7.10282e-02, 6.77931e-02, 9.73198e+55, 1.50410e+58
7.10282e-02, 7.81456e-02, 7.45869e-02, 3.91251e+55, 5.49715e+57
7.81456e-02, 8.59746e-02, 8.20601e-02, 8.17050e+55, 1.04361e+58
8.59746e-02, 9.45866e-02, 9.02806e-02, 6.25517e+55, 7.26334e+57
9.45866e-02, 1.04060e-01, 9.93232e-02, 3.19632e+55, 3.37408e+57
1.04060e-01, 1.14480e-01, 1.09270e-01, 2.63102e+55, 2.52485e+57
1.14480e-01, 1.25943e-01, 1.20212e-01, 2.15088e+55, 1.87644e+57
1.25943e-01, 1.38552e-01, 1.32247e-01, 1.26518e+55, 1.00341e+57
1.38552e-01, 1.52421e-01, 1.45486e-01, 5.79174e+54, 4.17583e+56
1.52421e-01, 1.67678e-01, 1.60050e-01, 2.20245e+54, 1.44360e+56
1.67678e-01, 1.84460e-01, 1.76069e-01, 6.87753e+53, 4.09808e+55
1.84460e-01, 2.02921e-01, 1.93691e-01, 1.70191e+53, 9.21917e+54
2.02921e-01, 2.23227e-01, 2.13074e-01, 3.26820e+52, 1.60943e+54
2.23227e-01, 2.45565e-01, 2.34396e-01, 4.84744e+51, 2.17011e+53
2.45565e-01, 2.70136e-01, 2.57850e-01, 5.57212e+50, 2.26777e+52
2.70136e-01, 2.97164e-01, 2.83650e-01, 4.99291e+49, 1.84731e+51
2.97164e-01, 3.26895e-01, 3.12029e-01, 3.50709e+48, 1.17961e+50
3.26895e-01, 3.59599e-01, 3.43247e-01, 1.93962e+47, 5.93083e+48
3.59599e-01, 3.95573e-01, 3.77586e-01, 8.47097e+45, 2.35472e+47
3.95573e-01, 4.35145e-01, 4.15359e-01, 2.92548e+44, 7.39283e+45
4.35145e-01, 4.78674e-01, 4.56909e-01, 7.98799e+42, 1.83510e+44
4.78674e-01, 5.26556e-01, 5.02615e-01, 1.72152e+41, 3.59535e+42
5.26556e-01, 5.79226e-01, 5.52891e-01, 2.91859e+39, 5.54127e+40
5.79226e-01, 6.37163e-01, 6.08194e-01, 3.87256e+37, 6.68408e+38
6.37163e-01, 7.00894e-01, 6.69028e-01, 3.99270e+35, 6.26495e+36
7.00894e-01, 7.70997e-01, 7.35945e-01, 3.16782e+33, 4.51876e+34
7.70997e-01, 8.48112e-01, 8.09555e-01, 1.90917e+31, 2.47577e+32
8.48112e-01, 9.32937e-01, 8.90524e-01, 8.58928e+28, 1.01258e+30
9.32937e-01, 1.02625e+00, 9.79591e-01, 2.81677e+26, 3.01878e+27
1.02625e+00, 1.12888e+00, 1.07757e+00, 6.51051e+23, 6.34311e+24
1.12888e+00, 1.24179e+00, 1.18534e+00, 1.00876e+21, 8.93473e+21
1.24179e+00, 1.36598e+00, 1.30388e+00, 9.66345e+17, 7.78098e+18
1.36598e+00, 1.50259e+00, 1.43429e+00, 4.92760e+14, 3.60699e+15
1.50259e+00, 1.65287e+00, 1.57773e+00, 9.29636e+10, 6.18628e+11
1.65287e+00, 1.81817e+00, 1.73552e+00, 5.45739e-04, 3.30148e-03
1.81817e+00, 2.00000e+00, 1.90908e+00, 0.00000e+00, 0.00000e+00
