# time = 6.600000000000001e+00# start, end, pivot, particles, density
0.00000e+00, 7.25710e-05, 3.62855e-05, 0.00000e+00, 0.00000e+00
7.25710e-05, 1.52399e-04, 1.12485e-04, 8.91524e-04, 1.11680e+01
1.52399e-04, 2.40210e-04, 1.96305e-04, 9.80676e-04, 1.11680e+01
2.40210e-04, 3.36802e-04, 2.88506e-04, 1.07874e-03, 1.11680e+01
3.36802e-04, 4.43053e-04, 3.89928e-04, 1.18662e-03, 1.11680e+01
4.43053e-04, 5.59929e-04, 5.01491e-04, 1.30528e-03, 1.11680e+01
5.59929e-04, 6.88493e-04, 6.24211e-04, 1.43580e-03, 1.11680e+01
6.88493e-04, 8.29914e-04, 7.59203e-04, 1.57938e-03, 1.11680e+01
8.29914e-04, 9.85476e-04, 9.07695e-04, 1.73732e-03, 1.11680e+01
9.85476e-04, 1.15659e-03, 1.07104e-03, 1.91104e-03, 1.11680e+01
1.15659e-03, 1.34482e-03, 1.25071e-03, 2.10214e-03, 1.11679e+01
1.34482e-03, 1.55188e-03, 1.44835e-03, 2.31235e-03, 1.11679e+01
1.55188e-03, 1.77964e-03, 1.66576e-03, 2.54357e-03, 1.11678e+01
1.77964e-03, 2.03017e-03, 1.90490e-03, 2.79791e-03, 1.11678e+01
2.03017e-03, 2.30576e-03, 2.16797e-03, 3.07768e-03, 1.11677e+01
2.30576e-03, 2.60891e-03, 2.45733e-03, 3.38541e-03, 1.11676e+01
2.60891e-03, 2.94237e-03, 2.77564e-03, 3.72391e-03, 1.11674e+01
2.94237e-03, 3.30918e-03, 3.12577e-03, 4.09624e-03, 1.11673e+01
3.30918e-03, 3.71267e-03, 3.51092e-03, 4.50578e-03, 1.11671e+01
3.71267e-03, 4.15650e-03, 3.93458e-03, 4.95625e-03, 1.11668e+01
4.15650e-03, 4.64472e-03, 4.40061e-03, 5.45173e-03, 1.11665e+01
4.64472e-03, 5.18177e-03, 4.91325e-03, 5.99670e-03, 1.11661e+01
5.18177e-03, 5.77252e-03, 5.47714e-03, 6.59609e-03, 1.11657e+01
5.77252e-03, 6.42234e-03, 6.09743e-03, 7.25533e-03, 1.11651e+01
6.42234e-03, 7.13714e-03, 6.77974e-03, 7.98037e-03, 1.11644e+01
7.13714e-03, 7.92343e-03, 7.53029e-03, 8.77774e-03, 1.11636e+01
7.92343e-03, 8.78834e-03, 8.35588e-03, 9.65462e-03, 1.11625e+01
8.78834e-03, 9.73975e-03, 9.26404e-03, 1.06189e-02, 1.11613e+01
9.73975e-03, 1.07863e-02, 1.02630e-02, 1.16792e-02, 1.11597e+01
1.07863e-02, 1.19375e-02, 1.13619e-02, 1.28449e-02, 1.11579e+01
1.19375e-02, 1.32038e-02, 1.25707e-02, 1.41265e-02, 1.11556e+01
1.32038e-02, 1.45968e-02, 1.39003e-02, 1.55353e-02, 1.11528e+01
1.45968e-02, 1.61290e-02, 1.53629e-02, 1.70837e-02, 1.11494e+01
1.61290e-02, 1.78145e-02, 1.69717e-02, 1.87851e-02, 1.11453e+01
1.78145e-02, 1.96685e-02, 1.87415e-02, 2.06544e-02, 1.11404e+01
1.96685e-02, 2.17079e-02, 2.06882e-02, 2.27076e-02, 1.11343e+01
2.17079e-02, 2.39513e-02, 2.28296e-02, 2.49619e-02, 1.11270e+01
2.39513e-02, 2.64190e-02, 2.51851e-02, 2.74362e-02, 1.11181e+01
2.64190e-02, 2.91335e-02, 2.77762e-02, 3.01506e-02, 1.11074e+01
2.91335e-02, 3.21194e-02, 3.06264e-02, 3.31267e-02, 1.10943e+01
3.21194e-02, 3.54039e-02, 3.37616e-02, 3.63875e-02, 1.10785e+01
3.54039e-02, 3.90168e-02, 3.72104e-02, 3.99572e-02, 1.10594e+01
3.90168e-02, 4.29911e-02, 4.10040e-02, 4.38609e-02, 1.10363e+01
4.29911e-02, 4.73628e-02, 4.51769e-02, 4.81247e-02, 1.10083e+01
4.73628e-02, 5.21716e-02, 4.97672e-02, 5.27746e-02, 1.09745e+01
5.21716e-02, 5.74614e-02, 5.48165e-02, 5.78362e-02, 1.09337e+01
5.74614e-02, 6.32801e-02, 6.03707e-02, 6.33332e-02, 1.08844e+01
6.32801e-02, 6.96806e-02, 6.64804e-02, 6.92865e-02, 1.08250e+01
6.96806e-02, 7.67213e-02, 7.32010e-02, 7.57118e-02, 1.07535e+01
7.67213e-02, 8.44660e-02, 8.05936e-02, 8.26173e-02, 1.06676e+01
8.44660e-02, 9.29852e-02, 8.87256e-02, 9.00001e-02, 1.05644e+01
9.29852e-02, 1.02356e-01, 9.76707e-02, 9.78416e-02, 1.04408e+01
1.02356e-01, 1.12664e-01, 1.07510e-01, 1.06102e-01, 1.02930e+01
1.12664e-01, 1.24003e-01, 1.18334e-01, 1.14715e-01, 1.01169e+01
1.24003e-01, 1.36476e-01, 1.30240e-01, 1.23576e-01, 9.90758e+00
1.36476e-01, 1.50197e-01, 1.43336e-01, 1.32536e-01, 9.65994e+00
1.50197e-01, 1.65289e-01, 1.57743e-01, 1.41389e-01, 9.36832e+00
1.65289e-01, 1.81890e-01, 1.73590e-01, 1.49860e-01, 9.02694e+00
1.81890e-01, 2.00152e-01, 1.91021e-01, 1.57600e-01, 8.63012e+00
2.00152e-01, 2.20240e-01, 2.10196e-01, 1.64173e-01, 8.17281e+00
2.20240e-01, 2.42336e-01, 2.31288e-01, 1.69066e-01, 7.65124e+00
2.42336e-01, 2.66642e-01, 2.54489e-01, 1.71694e-01, 7.06381e+00
2.66642e-01, 2.93379e-01, 2.80011e-01, 1.71442e-01, 6.41220e+00
2.93379e-01, 3.22790e-01, 3.08084e-01, 1.67717e-01, 5.70263e+00
3.22790e-01, 3.55141e-01, 3.38965e-01, 1.60044e-01, 4.94702e+00
3.55141e-01, 3.90728e-01, 3.72934e-01, 1.48180e-01, 4.16391e+00
3.90728e-01, 4.29873e-01, 4.10301e-01, 1.32256e-01, 3.37858e+00
4.29873e-01, 4.72933e-01, 4.51403e-01, 1.12897e-01, 2.62185e+00
4.72933e-01, 5.20299e-01, 4.96616e-01, 9.12836e-02, 1.92720e+00
5.20299e-01, 5.72401e-01, 5.46350e-01, 6.90906e-02, 1.32605e+00
5.72401e-01, 6.29714e-01, 6.01058e-01, 4.82472e-02, 8.41824e-01
6.29714e-01, 6.92758e-01, 6.61236e-01, 3.05381e-02, 4.84393e-01
6.92758e-01, 7.62106e-01, 7.27432e-01, 1.71424e-02, 2.47192e-01
7.62106e-01, 8.38390e-01, 8.00248e-01, 8.31007e-03, 1.08937e-01
8.38390e-01, 9.22301e-01, 8.80345e-01, 3.36916e-03, 4.01514e-02
9.22301e-01, 1.01460e+00, 9.68453e-01, 1.50350e-03, 1.62888e-02
1.01460e+00, 1.11614e+00, 1.06537e+00, 5.53132e-99, 5.44781e-98
1.11614e+00, 1.22782e+00, 1.17198e+00, 0.00000e+00, 0.00000e+00
1.22782e+00, 1.35068e+00, 1.28925e+00, 0.00000e+00, 0.00000e+00
1.35068e+00, 1.48582e+00, 1.41825e+00, 0.00000e+00, 0.00000e+00
1.48582e+00, 1.63447e+00, 1.56015e+00, 0.00000e+00, 0.00000e+00
1.63447e+00, 1.79799e+00, 1.71623e+00, 0.00000e+00, 0.00000e+00
1.79799e+00, 1.97786e+00, 1.88793e+00, 0.00000e+00, 0.00000e+00
1.97786e+00, 2.17572e+00, 2.07679e+00, 0.00000e+00, 0.00000e+00
2.17572e+00, 2.39337e+00, 2.28455e+00, 0.00000e+00, 0.00000e+00
2.39337e+00, 2.63278e+00, 2.51307e+00, 0.00000e+00, 0.00000e+00
2.63278e+00, 2.89613e+00, 2.76445e+00, 0.00000e+00, 0.00000e+00
2.89613e+00, 3.18581e+00, 3.04097e+00, 0.00000e+00, 0.00000e+00
3.18581e+00, 3.50447e+00, 3.34514e+00, 0.00000e+00, 0.00000e+00
3.50447e+00, 3.85499e+00, 3.67973e+00, 0.00000e+00, 0.00000e+00
3.85499e+00, 4.24056e+00, 4.04777e+00, 0.00000e+00, 0.00000e+00
4.24056e+00, 4.66469e+00, 4.45262e+00, 0.00000e+00, 0.00000e+00
4.66469e+00, 5.13123e+00, 4.89796e+00, 0.00000e+00, 0.00000e+00
5.13123e+00, 5.64442e+00, 5.38783e+00, 0.00000e+00, 0.00000e+00
5.64442e+00, 6.20894e+00, 5.92668e+00, 0.00000e+00, 0.00000e+00
6.20894e+00, 6.82990e+00, 6.51942e+00, 0.00000e+00, 0.00000e+00
6.82990e+00, 7.51297e+00, 7.17144e+00, 0.00000e+00, 0.00000e+00
7.51297e+00, 8.26434e+00, 7.88865e+00, 0.00000e+00, 0.00000e+00
8.26434e+00, 9.09084e+00, 8.67759e+00, 0.00000e+00, 0.00000e+00
9.09084e+00, 1.00000e+01, 9.54542e+00, 0.00000e+00, 0.00000e+00
