# time = 5.900000000000000e+00# start, end, pivot, particles, density
0.00000e+00, 7.25710e-05, 3.62855e-05, 0.00000e+00, 0.00000e+00
7.25710e-05, 1.52399e-04, 1.12485e-04, 8.03415e-04, 1.00643e+01
1.52399e-04, 2.40210e-04, 1.96305e-04, 8.83757e-04, 1.00643e+01
2.40210e-04, 3.36802e-04, 2.88506e-04, 9.72132e-04, 1.00643e+01
3.36802e-04, 4.43053e-04, 3.89928e-04, 1.06934e-03, 1.00643e+01
4.43053e-04, 5.59929e-04, 5.01491e-04, 1.17628e-03, 1.00643e+01
5.59929e-04, 6.88493e-04, 6.24211e-04, 1.29391e-03, 1.00643e+01
6.88493e-04, 8.29914e-04, 7.59203e-04, 1.42329e-03, 1.00643e+01
8.29914e-04, 9.85476e-04, 9.07695e-04, 1.56562e-03, 1.00643e+01
9.85476e-04, 1.15659e-03, 1.07104e-03, 1.72218e-03, 1.00642e+01
1.15659e-03, 1.34482e-03, 1.25071e-03, 1.89439e-03, 1.00642e+01
1.34482e-03, 1.55188e-03, 1.44835e-03, 2.08382e-03, 1.00642e+01
1.55188e-03, 1.77964e-03, 1.66576e-03, 2.29220e-03, 1.00641e+01
1.77964e-03, 2.03017e-03, 1.90490e-03, 2.52140e-03, 1.00641e+01
2.03017e-03, 2.30576e-03, 2.16797e-03, 2.77352e-03, 1.00640e+01
2.30576e-03, 2.60891e-03, 2.45733e-03, 3.05085e-03, 1.00639e+01
2.60891e-03, 2.94237e-03, 2.77564e-03, 3.35590e-03, 1.00638e+01
2.94237e-03, 3.30918e-03, 3.12577e-03, 3.69144e-03, 1.00637e+01
3.30918e-03, 3.71267e-03, 3.51092e-03, 4.06052e-03, 1.00635e+01
3.71267e-03, 4.15650e-03, 3.93458e-03, 4.46648e-03, 1.00633e+01
4.15650e-03, 4.64472e-03, 4.40061e-03, 4.91301e-03, 1.00631e+01
4.64472e-03, 5.18177e-03, 4.91325e-03, 5.40415e-03, 1.00628e+01
5.18177e-03, 5.77252e-03, 5.47714e-03, 5.94435e-03, 1.00624e+01
5.77252e-03, 6.42234e-03, 6.09743e-03, 6.53848e-03, 1.00620e+01
6.42234e-03, 7.13714e-03, 6.77974e-03, 7.19193e-03, 1.00614e+01
7.13714e-03, 7.92343e-03, 7.53029e-03, 7.91059e-03, 1.00607e+01
7.92343e-03, 8.78834e-03, 8.35588e-03, 8.70093e-03, 1.00599e+01
8.78834e-03, 9.73975e-03, 9.26404e-03, 9.57006e-03, 1.00589e+01
9.73975e-03, 1.07863e-02, 1.02630e-02, 1.05258e-02, 1.00576e+01
1.07863e-02, 1.19375e-02, 1.13619e-02, 1.15766e-02, 1.00561e+01
1.19375e-02, 1.32038e-02, 1.25707e-02, 1.27320e-02, 1.00543e+01
1.32038e-02, 1.45968e-02, 1.39003e-02, 1.40021e-02, 1.00521e+01
1.45968e-02, 1.61290e-02, 1.53629e-02, 1.53981e-02, 1.00494e+01
1.61290e-02, 1.78145e-02, 1.69717e-02, 1.69324e-02, 1.00461e+01
1.78145e-02, 1.96685e-02, 1.87415e-02, 1.86182e-02, 1.00421e+01
1.96685e-02, 2.17079e-02, 2.06882e-02, 2.04701e-02, 1.00372e+01
2.17079e-02, 2.39513e-02, 2.28296e-02, 2.25039e-02, 1.00313e+01
2.39513e-02, 2.64190e-02, 2.51851e-02, 2.47367e-02, 1.00242e+01
2.64190e-02, 2.91335e-02, 2.77762e-02, 2.71869e-02, 1.00156e+01
2.91335e-02, 3.21194e-02, 3.06264e-02, 2.98743e-02, 1.00051e+01
3.21194e-02, 3.54039e-02, 3.37616e-02, 3.28200e-02, 9.99237e+00
3.54039e-02, 3.90168e-02, 3.72104e-02, 3.60465e-02, 9.97700e+00
3.90168e-02, 4.29911e-02, 4.10040e-02, 3.95772e-02, 9.95839e+00
4.29911e-02, 4.73628e-02, 4.51769e-02, 4.34365e-02, 9.93588e+00
4.73628e-02, 5.21716e-02, 4.97672e-02, 4.76493e-02, 9.90868e+00
5.21716e-02, 5.74614e-02, 5.48165e-02, 5.22404e-02, 9.87581e+00
5.74614e-02, 6.32801e-02, 6.03707e-02, 5.72336e-02, 9.83614e+00
6.32801e-02, 6.96806e-02, 6.64804e-02, 6.26508e-02, 9.78830e+00
6.96806e-02, 7.67213e-02, 7.32010e-02, 6.85100e-02, 9.73066e+00
7.67213e-02, 8.44660e-02, 8.05936e-02, 7.48238e-02, 9.66129e+00
8.44660e-02, 9.29852e-02, 8.87256e-02, 8.15961e-02, 9.57794e+00
9.29852e-02, 1.02356e-01, 9.76707e-02, 8.88188e-02, 9.47797e+00
1.02356e-01, 1.12664e-01, 1.07510e-01, 9.64671e-02, 9.35829e+00
1.12664e-01, 1.24003e-01, 1.18334e-01, 1.04493e-01, 9.21538e+00
1.24003e-01, 1.36476e-01, 1.30240e-01, 1.12821e-01, 9.04524e+00
1.36476e-01, 1.50197e-01, 1.43336e-01, 1.21333e-01, 8.84341e+00
1.50197e-01, 1.65289e-01, 1.57743e-01, 1.29869e-01, 8.60503e+00
1.65289e-01, 1.81890e-01, 1.73590e-01, 1.38206e-01, 8.32492e+00
1.81890e-01, 2.00152e-01, 1.91021e-01, 1.46054e-01, 7.99789e+00
2.00152e-01, 2.20240e-01, 2.10196e-01, 1.53048e-01, 7.61896e+00
2.20240e-01, 2.42336e-01, 2.31288e-01, 1.58740e-01, 7.18395e+00
2.42336e-01, 2.66642e-01, 2.54489e-01, 1.62611e-01, 6.69011e+00
2.66642e-01, 2.93379e-01, 2.80011e-01, 1.64085e-01, 6.13706e+00
2.93379e-01, 3.22790e-01, 3.08084e-01, 1.62575e-01, 5.52779e+00
3.22790e-01, 3.55141e-01, 3.38965e-01, 1.57546e-01, 4.86982e+00
3.55141e-01, 3.90728e-01, 3.72934e-01, 1.48618e-01, 4.17621e+00
3.90728e-01, 4.29873e-01, 4.10301e-01, 1.35684e-01, 3.46617e+00
4.29873e-01, 4.72933e-01, 4.51403e-01, 1.19048e-01, 2.76472e+00
4.72933e-01, 5.20299e-01, 4.96616e-01, 9.95191e-02, 2.10107e+00
5.20299e-01, 5.72401e-01, 5.46350e-01, 7.84330e-02, 1.50536e+00
5.72401e-01, 6.29714e-01, 6.01058e-01, 5.75288e-02, 1.00377e+00
6.29714e-01, 6.92758e-01, 6.61236e-01, 3.86525e-02, 6.13104e-01
6.92758e-01, 7.62106e-01, 7.27432e-01, 2.33303e-02, 3.36422e-01
7.62106e-01, 8.38390e-01, 8.00248e-01, 1.23530e-02, 1.61936e-01
8.38390e-01, 9.22301e-01, 8.80345e-01, 5.57473e-03, 6.64358e-02
9.22301e-01, 1.01460e+00, 9.68453e-01, 2.99572e-03, 3.24554e-02
1.01460e+00, 1.11614e+00, 1.06537e+00, 1.28553e-98, 1.26612e-97
1.11614e+00, 1.22782e+00, 1.17198e+00, 0.00000e+00, 0.00000e+00
1.22782e+00, 1.35068e+00, 1.28925e+00, 0.00000e+00, 0.00000e+00
1.35068e+00, 1.48582e+00, 1.41825e+00, 0.00000e+00, 0.00000e+00
1.48582e+00, 1.63447e+00, 1.56015e+00, 0.00000e+00, 0.00000e+00
1.63447e+00, 1.79799e+00, 1.71623e+00, 0.00000e+00, 0.00000e+00
1.79799e+00, 1.97786e+00, 1.88793e+00, 0.00000e+00, 0.00000e+00
1.97786e+00, 2.17572e+00, 2.07679e+00, 0.00000e+00, 0.00000e+00
2.17572e+00, 2.39337e+00, 2.28455e+00, 0.00000e+00, 0.00000e+00
2.39337e+00, 2.63278e+00, 2.51307e+00, 0.00000e+00, 0.00000e+00
2.63278e+00, 2.89613e+00, 2.76445e+00, 0.00000e+00, 0.00000e+00
2.89613e+00, 3.18581e+00, 3.04097e+00, 0.00000e+00, 0.00000e+00
3.18581e+00, 3.50447e+00, 3.34514e+00, 0.00000e+00, 0.00000e+00
3.50447e+00, 3.85499e+00, 3.67973e+00, 0.00000e+00, 0.00000e+00
3.85499e+00, 4.24056e+00, 4.04777e+00, 0.00000e+00, 0.00000e+00
4.24056e+00, 4.66469e+00, 4.45262e+00, 0.00000e+00, 0.00000e+00
4.66469e+00, 5.13123e+00, 4.89796e+00, 0.00000e+00, 0.00000e+00
5.13123e+00, 5.64442e+00, 5.38783e+00, 0.00000e+00, 0.00000e+00
5.64442e+00, 6.20894e+00, 5.92668e+00, 0.00000e+00, 0.00000e+00
6.20894e+00, 6.82990e+00, 6.51942e+00, 0.00000e+00, 0.00000e+00
6.82990e+00, 7.51297e+00, 7.17144e+00, 0.00000e+00, 0.00000e+00
7.51297e+00, 8.26434e+00, 7.88865e+00, 0.00000e+00, 0.00000e+00
8.26434e+00, 9.09084e+00, 8.67759e+00, 0.00000e+00, 0.00000e+00
9.09084e+00, 1.00000e+01, 9.54542e+00, 0.00000e+00, 0.00000e+00
