# time = 4.200000000000000e+00# start, end, pivot, particles, density
0.00000e+00, 7.25710e-05, 3.62855e-05, 5.90365e-04, 8.13500e+00
7.25710e-05, 1.52399e-04, 1.12485e-04, 6.49402e-04, 8.13500e+00
1.52399e-04, 2.40210e-04, 1.96305e-04, 7.14342e-04, 8.13500e+00
2.40210e-04, 3.36802e-04, 2.88506e-04, 7.85776e-04, 8.13500e+00
3.36802e-04, 4.43053e-04, 3.89928e-04, 8.64353e-04, 8.13500e+00
4.43053e-04, 5.59929e-04, 5.01491e-04, 9.50788e-04, 8.13499e+00
5.59929e-04, 6.88493e-04, 6.24211e-04, 1.04587e-03, 8.13499e+00
6.88493e-04, 8.29914e-04, 7.59203e-04, 1.15045e-03, 8.13498e+00
8.29914e-04, 9.85476e-04, 9.07695e-04, 1.26550e-03, 8.13497e+00
9.85476e-04, 1.15659e-03, 1.07104e-03, 1.39204e-03, 8.13496e+00
1.15659e-03, 1.34482e-03, 1.25071e-03, 1.53125e-03, 8.13495e+00
1.34482e-03, 1.55188e-03, 1.44835e-03, 1.68437e-03, 8.13493e+00
1.55188e-03, 1.77964e-03, 1.66576e-03, 1.85280e-03, 8.13491e+00
1.77964e-03, 2.03017e-03, 1.90490e-03, 2.03807e-03, 8.13488e+00
2.03017e-03, 2.30576e-03, 2.16797e-03, 2.24187e-03, 8.13485e+00
2.30576e-03, 2.60891e-03, 2.45733e-03, 2.46604e-03, 8.13480e+00
2.60891e-03, 2.94237e-03, 2.77564e-03, 2.71263e-03, 8.13475e+00
2.94237e-03, 3.30918e-03, 3.12577e-03, 2.98386e-03, 8.13468e+00
3.30918e-03, 3.71267e-03, 3.51092e-03, 3.28222e-03, 8.13459e+00
3.71267e-03, 4.15650e-03, 3.93458e-03, 3.61039e-03, 8.13449e+00
4.15650e-03, 4.64472e-03, 4.40061e-03, 3.97137e-03, 8.13436e+00
4.64472e-03, 5.18177e-03, 4.91325e-03, 4.36842e-03, 8.13420e+00
5.18177e-03, 5.77252e-03, 5.47714e-03, 4.80514e-03, 8.13400e+00
5.77252e-03, 6.42234e-03, 6.09743e-03, 5.28550e-03, 8.13377e+00
6.42234e-03, 7.13714e-03, 6.77974e-03, 5.81385e-03, 8.13347e+00
7.13714e-03, 7.92343e-03, 7.53029e-03, 6.39495e-03, 8.13312e+00
7.92343e-03, 8.78834e-03, 8.35588e-03, 7.03407e-03, 8.13268e+00
8.78834e-03, 9.73975e-03, 9.26404e-03, 7.73697e-03, 8.13215e+00
9.73975e-03, 1.07863e-02, 1.02630e-02, 8.50999e-03, 8.13150e+00
1.07863e-02, 1.19375e-02, 1.13619e-02, 9.36008e-03, 8.13071e+00
1.19375e-02, 1.32038e-02, 1.25707e-02, 1.02949e-02, 8.12975e+00
1.32038e-02, 1.45968e-02, 1.39003e-02, 1.13227e-02, 8.12858e+00
1.45968e-02, 1.61290e-02, 1.53629e-02, 1.24528e-02, 8.12716e+00
1.61290e-02, 1.78145e-02, 1.69717e-02, 1.36952e-02, 8.12543e+00
1.78145e-02, 1.96685e-02, 1.87415e-02, 1.50608e-02, 8.12333e+00
1.96685e-02, 2.17079e-02, 2.06882e-02, 1.65617e-02, 8.12078e+00
2.17079e-02, 2.39513e-02, 2.28296e-02, 1.82109e-02, 8.11769e+00
2.39513e-02, 2.64190e-02, 2.51851e-02, 2.00228e-02, 8.11394e+00
2.64190e-02, 2.91335e-02, 2.77762e-02, 2.20127e-02, 8.10939e+00
2.91335e-02, 3.21194e-02, 3.06264e-02, 2.41975e-02, 8.10387e+00
3.21194e-02, 3.54039e-02, 3.37616e-02, 2.65953e-02, 8.09719e+00
3.54039e-02, 3.90168e-02, 3.72104e-02, 2.92255e-02, 8.08909e+00
3.90168e-02, 4.29911e-02, 4.10040e-02, 3.21091e-02, 8.07928e+00
4.29911e-02, 4.73628e-02, 4.51769e-02, 3.52681e-02, 8.06741e+00
4.73628e-02, 5.21716e-02, 4.97672e-02, 3.87259e-02, 8.05305e+00
5.21716e-02, 5.74614e-02, 5.48165e-02, 4.25066e-02, 8.03568e+00
5.74614e-02, 6.32801e-02, 6.03707e-02, 4.66351e-02, 8.01468e+00
6.32801e-02, 6.96806e-02, 6.64804e-02, 5.11363e-02, 7.98932e+00
6.96806e-02, 7.67213e-02, 7.32010e-02, 5.60344e-02, 7.95871e+00
7.67213e-02, 8.44660e-02, 8.05936e-02, 6.13518e-02, 7.92178e+00
8.44660e-02, 9.29852e-02, 8.87256e-02, 6.71079e-02, 7.87728e+00
9.29852e-02, 1.02356e-01, 9.76707e-02, 7.33168e-02, 7.82372e+00
1.02356e-01, 1.12664e-01, 1.07510e-01, 7.99849e-02, 7.75935e+00
1.12664e-01, 1.24003e-01, 1.18334e-01, 8.71073e-02, 7.68209e+00
1.24003e-01, 1.36476e-01, 1.30240e-01, 9.46639e-02, 7.58955e+00
1.36476e-01, 1.50197e-01, 1.43336e-01, 1.02613e-01, 7.47898e+00
1.50197e-01, 1.65289e-01, 1.57743e-01, 1.10886e-01, 7.34721e+00
1.65289e-01, 1.81890e-01, 1.73590e-01, 1.19376e-01, 7.19071e+00
1.81890e-01, 2.00152e-01, 1.91021e-01, 1.27934e-01, 7.00562e+00
2.00152e-01, 2.20240e-01, 2.10196e-01, 1.36351e-01, 6.78776e+00
2.20240e-01, 2.42336e-01, 2.31288e-01, 1.44354e-01, 6.53287e+00
2.42336e-01, 2.66642e-01, 2.54489e-01, 1.51593e-01, 6.23679e+00
2.66642e-01, 2.93379e-01, 2.80011e-01, 1.57637e-01, 5.89586e+00
2.93379e-01, 3.22790e-01, 3.08084e-01, 1.61976e-01, 5.50743e+00
3.22790e-01, 3.55141e-01, 3.38965e-01, 1.64040e-01, 5.07053e+00
3.55141e-01, 3.90728e-01, 3.72934e-01, 1.63227e-01, 4.58673e+00
3.90728e-01, 4.29873e-01, 4.10301e-01, 1.58971e-01, 4.06105e+00
4.29873e-01, 4.72933e-01, 4.51403e-01, 1.50835e-01, 3.50291e+00
4.72933e-01, 5.20299e-01, 4.96616e-01, 1.38627e-01, 2.92673e+00
5.20299e-01, 5.72401e-01, 5.46350e-01, 1.22543e-01, 2.35197e+00
5.72401e-01, 6.29714e-01, 6.01058e-01, 1.03286e-01, 1.80215e+00
6.29714e-01, 6.92758e-01, 6.61236e-01, 8.21124e-02, 1.30246e+00
6.92758e-01, 7.62106e-01, 7.27432e-01, 6.07537e-02, 8.76065e-01
7.62106e-01, 8.38390e-01, 8.00248e-01, 4.12301e-02, 5.40487e-01
8.38390e-01, 9.22301e-01, 8.80345e-01, 2.65016e-02, 3.15828e-01
9.22301e-01, 1.01460e+00, 9.68453e-01, 2.16737e-02, 2.34811e-01
1.01460e+00, 1.11614e+00, 1.06537e+00, 1.45244e-97, 1.43051e-96
1.11614e+00, 1.22782e+00, 1.17198e+00, 0.00000e+00, 0.00000e+00
1.22782e+00, 1.35068e+00, 1.28925e+00, 0.00000e+00, 0.00000e+00
1.35068e+00, 1.48582e+00, 1.41825e+00, 0.00000e+00, 0.00000e+00
1.48582e+00, 1.63447e+00, 1.56015e+00, 0.00000e+00, 0.00000e+00
1.63447e+00, 1.79799e+00, 1.71623e+00, 0.00000e+00, 0.00000e+00
1.79799e+00, 1.97786e+00, 1.88793e+00, 0.00000e+00, 0.00000e+00
1.97786e+00, 2.17572e+00, 2.07679e+00, 0.00000e+00, 0.00000e+00
2.17572e+00, 2.39337e+00, 2.28455e+00, 0.00000e+00, 0.00000e+00
2.39337e+00, 2.63278e+00, 2.51307e+00, 0.00000e+00, 0.00000e+00
2.63278e+00, 2.89613e+00, 2.76445e+00, 0.00000e+00, 0.00000e+00
2.89613e+00, 3.18581e+00, 3.04097e+00, 0.00000e+00, 0.00000e+00
3.18581e+00, 3.50447e+00, 3.34514e+00, 0.00000e+00, 0.00000e+00
3.50447e+00, 3.85499e+00, 3.67973e+00, 0.00000e+00, 0.00000e+00
3.85499e+00, 4.24056e+00, 4.04777e+00, 0.00000e+00, 0.00000e+00
4.24056e+00, 4.66469e+00, 4.45262e+00, 0.00000e+00, 0.00000e+00
4.66469e+00, 5.13123e+00, 4.89796e+00, 0.00000e+00, 0.00000e+00
5.13123e+00, 5.64442e+00, 5.38783e+00, 0.00000e+00, 0.00000e+00
5.64442e+00, 6.20894e+00, 5.92668e+00, 0.00000e+00, 0.00000e+00
6.20894e+00, 6.82990e+00, 6.51942e+00, 0.00000e+00, 0.00000e+00
6.82990e+00, 7.51297e+00, 7.17144e+00, 0.00000e+00, 0.00000e+00
7.51297e+00, 8.26434e+00, 7.88865e+00, 0.00000e+00, 0.00000e+00
8.26434e+00, 9.09084e+00, 8.67759e+00, 0.00000e+00, 0.00000e+00
9.09084e+00, 1.00000e+01, 9.54542e+00, 0.00000e+00, 0.00000e+00
