# time = 5.000000000000000e-01# start, end, pivot, particles, density
0.00000e+00, 7.25710e-05, 3.62855e-05, 0.00000e+00, 0.00000e+00
7.25710e-05, 1.52399e-04, 1.12485e-04, 7.62335e-05, 9.54972e-01
1.52399e-04, 2.40210e-04, 1.96305e-04, 8.38569e-05, 9.54972e-01
2.40210e-04, 3.36802e-04, 2.88506e-04, 9.22426e-05, 9.54972e-01
3.36802e-04, 4.43053e-04, 3.89928e-04, 1.01467e-04, 9.54972e-01
4.43053e-04, 5.59929e-04, 5.01491e-04, 1.11614e-04, 9.54971e-01
5.59929e-04, 6.88493e-04, 6.24211e-04, 1.22775e-04, 9.54971e-01
6.88493e-04, 8.29914e-04, 7.59203e-04, 1.35052e-04, 9.54971e-01
8.29914e-04, 9.85476e-04, 9.07695e-04, 1.48558e-04, 9.54971e-01
9.85476e-04, 1.15659e-03, 1.07104e-03, 1.63413e-04, 9.54971e-01
1.15659e-03, 1.34482e-03, 1.25071e-03, 1.79755e-04, 9.54971e-01
1.34482e-03, 1.55188e-03, 1.44835e-03, 1.97730e-04, 9.54971e-01
1.55188e-03, 1.77964e-03, 1.66576e-03, 2.17503e-04, 9.54970e-01
1.77964e-03, 2.03017e-03, 1.90490e-03, 2.39253e-04, 9.54970e-01
2.03017e-03, 2.30576e-03, 2.16797e-03, 2.63178e-04, 9.54970e-01
2.30576e-03, 2.60891e-03, 2.45733e-03, 2.89496e-04, 9.54969e-01
2.60891e-03, 2.94237e-03, 2.77564e-03, 3.18445e-04, 9.54968e-01
2.94237e-03, 3.30918e-03, 3.12577e-03, 3.50290e-04, 9.54968e-01
3.30918e-03, 3.71267e-03, 3.51092e-03, 3.85318e-04, 9.54967e-01
3.71267e-03, 4.15650e-03, 3.93458e-03, 4.23849e-04, 9.54965e-01
4.15650e-03, 4.64472e-03, 4.40061e-03, 4.66234e-04, 9.54964e-01
4.64472e-03, 5.18177e-03, 4.91325e-03, 5.12856e-04, 9.54962e-01
5.18177e-03, 5.77252e-03, 5.47714e-03, 5.64140e-04, 9.54959e-01
5.77252e-03, 6.42234e-03, 6.09743e-03, 6.20552e-04, 9.54956e-01
6.42234e-03, 7.13714e-03, 6.77974e-03, 6.82605e-04, 9.54953e-01
7.13714e-03, 7.92343e-03, 7.53029e-03, 7.50862e-04, 9.54949e-01
7.92343e-03, 8.78834e-03, 8.35588e-03, 8.25944e-04, 9.54943e-01
8.78834e-03, 9.73975e-03, 9.26404e-03, 9.08532e-04, 9.54937e-01
9.73975e-03, 1.07863e-02, 1.02630e-02, 9.99377e-04, 9.54929e-01
1.07863e-02, 1.19375e-02, 1.13619e-02, 1.09930e-03, 9.54919e-01
1.19375e-02, 1.32038e-02, 1.25707e-02, 1.20922e-03, 9.54908e-01
1.32038e-02, 1.45968e-02, 1.39003e-02, 1.33012e-03, 9.54893e-01
1.45968e-02, 1.61290e-02, 1.53629e-02, 1.46311e-03, 9.54876e-01
1.61290e-02, 1.78145e-02, 1.69717e-02, 1.60938e-03, 9.54855e-01
1.78145e-02, 1.96685e-02, 1.87415e-02, 1.77027e-03, 9.54829e-01
1.96685e-02, 2.17079e-02, 2.06882e-02, 1.94724e-03, 9.54798e-01
2.17079e-02, 2.39513e-02, 2.28296e-02, 2.14188e-03, 9.54761e-01
2.39513e-02, 2.64190e-02, 2.51851e-02, 2.35595e-03, 9.54715e-01
2.64190e-02, 2.91335e-02, 2.77762e-02, 2.59139e-03, 9.54659e-01
2.91335e-02, 3.21194e-02, 3.06264e-02, 2.85033e-03, 9.54592e-01
3.21194e-02, 3.54039e-02, 3.37616e-02, 3.13510e-03, 9.54510e-01
3.54039e-02, 3.90168e-02, 3.72104e-02, 3.44825e-03, 9.54411e-01
3.90168e-02, 4.29911e-02, 4.10040e-02, 3.79260e-03, 9.54291e-01
4.29911e-02, 4.73628e-02, 4.51769e-02, 4.17122e-03, 9.54146e-01
4.73628e-02, 5.21716e-02, 4.97672e-02, 4.58750e-03, 9.53970e-01
5.21716e-02, 5.74614e-02, 5.48165e-02, 5.04512e-03, 9.53757e-01
5.74614e-02, 6.32801e-02, 6.03707e-02, 5.54813e-03, 9.53498e-01
6.32801e-02, 6.96806e-02, 6.64804e-02, 6.10094e-03, 9.53185e-01
6.96806e-02, 7.67213e-02, 7.32010e-02, 6.70836e-03, 9.52806e-01
7.67213e-02, 8.44660e-02, 8.05936e-02, 7.37564e-03, 9.52347e-01
8.44660e-02, 9.29852e-02, 8.87256e-02, 8.10847e-03, 9.51792e-01
9.29852e-02, 1.02356e-01, 9.76707e-02, 8.91302e-03, 9.51119e-01
1.02356e-01, 1.12664e-01, 1.07510e-01, 9.79594e-03, 9.50306e-01
1.12664e-01, 1.24003e-01, 1.18334e-01, 1.07644e-02, 9.49321e-01
1.24003e-01, 1.36476e-01, 1.30240e-01, 1.18260e-02, 9.48131e-01
1.36476e-01, 1.50197e-01, 1.43336e-01, 1.29888e-02, 9.46691e-01
1.50197e-01, 1.65289e-01, 1.57743e-01, 1.42614e-02, 9.44950e-01
1.65289e-01, 1.81890e-01, 1.73590e-01, 1.56526e-02, 9.42846e-01
1.81890e-01, 2.00152e-01, 1.91021e-01, 1.71714e-02, 9.40303e-01
2.00152e-01, 2.20240e-01, 2.10196e-01, 1.88269e-02, 9.37233e-01
2.20240e-01, 2.42336e-01, 2.31288e-01, 2.06277e-02, 9.33527e-01
2.42336e-01, 2.66642e-01, 2.54489e-01, 2.25818e-02, 9.29056e-01
2.66642e-01, 2.93379e-01, 2.80011e-01, 2.46959e-02, 9.23667e-01
2.93379e-01, 3.22790e-01, 3.08084e-01, 2.69746e-02, 9.17176e-01
3.22790e-01, 3.55141e-01, 3.38965e-01, 2.94194e-02, 9.09367e-01
3.55141e-01, 3.90728e-01, 3.72934e-01, 3.20274e-02, 8.99983e-01
3.90728e-01, 4.29873e-01, 4.10301e-01, 3.47895e-02, 8.88726e-01
4.29873e-01, 4.72933e-01, 4.51403e-01, 3.76880e-02, 8.75247e-01
4.72933e-01, 5.20299e-01, 4.96616e-01, 4.06940e-02, 8.59143e-01
5.20299e-01, 5.72401e-01, 5.46350e-01, 4.37638e-02, 8.39957e-01
5.72401e-01, 6.29714e-01, 6.01058e-01, 4.68346e-02, 8.17177e-01
6.29714e-01, 6.92758e-01, 6.61236e-01, 4.98200e-02, 7.90242e-01
6.92758e-01, 7.62106e-01, 7.27432e-01, 5.26048e-02, 7.58558e-01
7.62106e-01, 8.38390e-01, 8.00248e-01, 5.50400e-02, 7.21522e-01
8.38390e-01, 9.22301e-01, 8.80345e-01, 5.69395e-02, 6.78565e-01
9.22301e-01, 1.01460e+00, 9.68453e-01, 6.11145e-01, 6.62109e+00
1.01460e+00, 1.11614e+00, 1.06537e+00, 8.59940e-96, 8.46957e-95
1.11614e+00, 1.22782e+00, 1.17198e+00, 0.00000e+00, 0.00000e+00
1.22782e+00, 1.35068e+00, 1.28925e+00, 0.00000e+00, 0.00000e+00
1.35068e+00, 1.48582e+00, 1.41825e+00, 0.00000e+00, 0.00000e+00
1.48582e+00, 1.63447e+00, 1.56015e+00, 0.00000e+00, 0.00000e+00
1.63447e+00, 1.79799e+00, 1.71623e+00, 0.00000e+00, 0.00000e+00
1.79799e+00, 1.97786e+00, 1.88793e+00, 0.00000e+00, 0.00000e+00
1.97786e+00, 2.17572e+00, 2.07679e+00, 0.00000e+00, 0.00000e+00
2.17572e+00, 2.39337e+00, 2.28455e+00, 0.00000e+00, 0.00000e+00
2.39337e+00, 2.63278e+00, 2.51307e+00, 0.00000e+00, 0.00000e+00
2.63278e+00, 2.89613e+00, 2.76445e+00, 0.00000e+00, 0.00000e+00
2.89613e+00, 3.18581e+00, 3.04097e+00, 0.00000e+00, 0.00000e+00
3.18581e+00, 3.50447e+00, 3.34514e+00, 0.00000e+00, 0.00000e+00
3.50447e+00, 3.85499e+00, 3.67973e+00, 0.00000e+00, 0.00000e+00
3.85499e+00, 4.24056e+00, 4.04777e+00, 0.00000e+00, 0.00000e+00
4.24056e+00, 4.66469e+00, 4.45262e+00, 0.00000e+00, 0.00000e+00
4.66469e+00, 5.13123e+00, 4.89796e+00, 0.00000e+00, 0.00000e+00
5.13123e+00, 5.64442e+00, 5.38783e+00, 0.00000e+00, 0.00000e+00
5.64442e+00, 6.20894e+00, 5.92668e+00, 0.00000e+00, 0.00000e+00
6.20894e+00, 6.82990e+00, 6.51942e+00, 0.00000e+00, 0.00000e+00
6.82990e+00, 7.51297e+00, 7.17144e+00, 0.00000e+00, 0.00000e+00
7.51297e+00, 8.26434e+00, 7.88865e+00, 0.00000e+00, 0.00000e+00
8.26434e+00, 9.09084e+00, 8.67759e+00, 0.00000e+00, 0.00000e+00
9.09084e+00, 1.00000e+01, 9.54542e+00, 0.00000e+00, 0.00000e+00
