# time = 2.000000000000000e-01# start, end, pivot, particles, density
0.00000e+00, 3.32107e-02, 1.66053e-02, 2.60112e-02, 7.83218e-01
3.32107e-02, 9.29899e-02, 6.31003e-02, 4.42792e-02, 7.40712e-01
9.29899e-02, 2.00592e-01, 1.46791e-01, 7.20996e-02, 6.70055e-01
2.00592e-01, 3.94277e-01, 2.97435e-01, 1.09033e-01, 5.62943e-01
3.94277e-01, 7.42909e-01, 5.68593e-01, 1.45271e-01, 4.16687e-01
7.42909e-01, 1.37045e+00, 1.05668e+00, 1.58826e-01, 2.53093e-01
1.37045e+00, 2.50002e+00, 1.93523e+00, 1.30137e-01, 1.15209e-01
2.50002e+00, 4.53324e+00, 3.51663e+00, 8.10497e-02, 3.98627e-02
4.53324e+00, 8.19304e+00, 6.36314e+00, 2.83242e-02, 7.73927e-03
8.19304e+00, 1.47807e+01, 1.14869e+01, 3.89283e-03, 5.90929e-04
1.47807e+01, 2.66384e+01, 2.07096e+01, 1.24246e-04, 1.04780e-05
2.66384e+01, 4.79824e+01, 3.73104e+01, 3.71596e-07, 1.74099e-08
4.79824e+01, 8.64015e+01, 6.71920e+01, 1.23349e-11, 3.21062e-13
8.64015e+01, 1.55556e+02, 1.20979e+02, 7.31711e-20, 1.05808e-21
1.55556e+02, 2.80034e+02, 2.17795e+02, 4.99203e-35, 4.01037e-37
2.80034e+02, 5.04094e+02, 3.92064e+02, 7.59223e-63, 3.38848e-65
5.04094e+02, 9.07403e+02, 7.05749e+02, 1.63501e-113, 4.05398e-116
9.07403e+02, 1.63336e+03, 1.27038e+03, 2.51118e-205, 3.45914e-208
1.63336e+03, 2.94008e+03, 2.28672e+03, 0.00000e+00, 0.00000e+00
2.94008e+03, 5.29218e+03, 4.11613e+03, 0.00000e+00, 0.00000e+00
5.29218e+03, 9.52595e+03, 7.40906e+03, 0.00000e+00, 0.00000e+00
9.52595e+03, 1.71467e+04, 1.33363e+04, 0.00000e+00, 0.00000e+00
1.71467e+04, 3.08642e+04, 2.40055e+04, 0.00000e+00, 0.00000e+00
3.08642e+04, 5.55555e+04, 4.32099e+04, 0.00000e+00, 0.00000e+00
5.55555e+04, 1.00000e+05, 7.77778e+04, 0.00000e+00, 0.00000e+00
