# time = 1.000000000000000e+00# start, end, pivot, particles, density
0.00000e+00, 2.41493e-04, 1.20747e-04, 2.41464e-04, 9.99879e-01
2.41493e-04, 5.31286e-04, 3.86390e-04, 1.00355e-04, 3.46301e-01
5.31286e-04, 8.79036e-04, 7.05161e-04, 1.20360e-04, 3.46111e-01
8.79036e-04, 1.29634e-03, 1.08769e-03, 1.44337e-04, 3.45883e-01
1.29634e-03, 1.79710e-03, 1.54672e-03, 1.73068e-04, 3.45610e-01
1.79710e-03, 2.39801e-03, 2.09755e-03, 2.07485e-04, 3.45283e-01
2.39801e-03, 3.11911e-03, 2.75856e-03, 2.48699e-04, 3.44890e-01
3.11911e-03, 3.98442e-03, 3.55176e-03, 2.98032e-04, 3.44420e-01
3.98442e-03, 5.02280e-03, 4.50361e-03, 3.57053e-04, 3.43856e-01
5.02280e-03, 6.26885e-03, 5.64583e-03, 4.27623e-04, 3.43182e-01
6.26885e-03, 7.76412e-03, 7.01648e-03, 5.11941e-04, 3.42375e-01
7.76412e-03, 9.55843e-03, 8.66127e-03, 6.12596e-04, 3.41409e-01
9.55843e-03, 1.17116e-02, 1.06350e-02, 7.32630e-04, 3.40255e-01
1.17116e-02, 1.42954e-02, 1.30035e-02, 8.75593e-04, 3.38876e-01
1.42954e-02, 1.73960e-02, 1.58457e-02, 1.04561e-03, 3.37231e-01
1.73960e-02, 2.11167e-02, 1.92564e-02, 1.24744e-03, 3.35269e-01
2.11167e-02, 2.55815e-02, 2.33491e-02, 1.48650e-03, 3.32934e-01
2.55815e-02, 3.09393e-02, 2.82604e-02, 1.76892e-03, 3.30158e-01
3.09393e-02, 3.73687e-02, 3.41540e-02, 2.10153e-03, 3.26865e-01
3.73687e-02, 4.50839e-02, 4.12263e-02, 2.49177e-03, 3.22968e-01
4.50839e-02, 5.43422e-02, 4.97131e-02, 2.94752e-03, 3.18366e-01
5.43422e-02, 6.54521e-02, 5.98972e-02, 3.47686e-03, 3.12951e-01
6.54521e-02, 7.87841e-02, 7.21181e-02, 4.08761e-03, 3.06603e-01
7.87841e-02, 9.47824e-02, 8.67832e-02, 4.78665e-03, 2.99197e-01
9.47824e-02, 1.13980e-01, 1.04381e-01, 5.57900e-03, 2.90604e-01
1.13980e-01, 1.37018e-01, 1.25499e-01, 6.46656e-03, 2.80696e-01
1.37018e-01, 1.64663e-01, 1.50840e-01, 7.44657e-03, 2.69363e-01
1.64663e-01, 1.97837e-01, 1.81250e-01, 8.50976e-03, 2.56518e-01
1.97837e-01, 2.37646e-01, 2.17742e-01, 9.63842e-03, 2.42117e-01
2.37646e-01, 2.85417e-01, 2.61531e-01, 1.08046e-02, 2.26177e-01
2.85417e-01, 3.42742e-01, 3.14079e-01, 1.19692e-02, 2.08797e-01
3.42742e-01, 4.11531e-01, 3.77136e-01, 1.30822e-02, 1.90176e-01
4.11531e-01, 4.94079e-01, 4.52805e-01, 1.40849e-02, 1.70627e-01
4.94079e-01, 5.93136e-01, 5.43608e-01, 1.49155e-02, 1.50575e-01
5.93136e-01, 7.12005e-01, 6.52571e-01, 1.55171e-02, 1.30540e-01
7.12005e-01, 8.54648e-01, 7.83326e-01, 1.58473e-02, 1.11098e-01
8.54648e-01, 1.02582e+00, 9.40233e-01, 1.58881e-02, 9.28203e-02
1.02582e+00, 1.23122e+00, 1.12852e+00, 1.56514e-02, 7.61976e-02
1.23122e+00, 1.47771e+00, 1.35447e+00, 1.51774e-02, 6.15751e-02
1.47771e+00, 1.77349e+00, 1.62560e+00, 1.45256e-02, 4.91090e-02
1.77349e+00, 2.12843e+00, 1.95096e+00, 1.37597e-02, 3.87662e-02
2.12843e+00, 2.55436e+00, 2.34140e+00, 1.29332e-02, 3.03648e-02
2.55436e+00, 3.06548e+00, 2.80992e+00, 1.20822e-02, 2.36389e-02
3.06548e+00, 3.67881e+00, 3.37214e+00, 1.12254e-02, 1.83023e-02
3.67881e+00, 4.41482e+00, 4.04681e+00, 1.03704e-02, 1.40901e-02
4.41482e+00, 5.29802e+00, 4.85642e+00, 9.51837e-03, 1.07771e-02
5.29802e+00, 6.35787e+00, 5.82794e+00, 8.66853e-03, 8.17904e-03
6.35787e+00, 7.62968e+00, 6.99378e+00, 7.81907e-03, 6.14796e-03
7.62968e+00, 9.15586e+00, 8.39277e+00, 6.96856e-03, 4.56602e-03
9.15586e+00, 1.09873e+01, 1.00716e+01, 6.11709e-03, 3.34009e-03
1.09873e+01, 1.31850e+01, 1.20861e+01, 5.26742e-03, 2.39679e-03
1.31850e+01, 1.58222e+01, 1.45036e+01, 4.42632e-03, 1.67839e-03
1.58222e+01, 1.89869e+01, 1.74045e+01, 3.60566e-03, 1.13934e-03
1.89869e+01, 2.27845e+01, 2.08857e+01, 2.82307e-03, 7.43380e-04
2.27845e+01, 2.73417e+01, 2.50631e+01, 2.10150e-03, 4.61144e-04
2.73417e+01, 3.28102e+01, 3.00759e+01, 1.46685e-03, 2.68232e-04
3.28102e+01, 3.93725e+01, 3.60914e+01, 9.43275e-04, 1.43742e-04
3.93725e+01, 4.72473e+01, 4.33099e+01, 5.46510e-04, 6.94003e-05
4.72473e+01, 5.66969e+01, 5.19721e+01, 2.77357e-04, 2.93509e-05
5.66969e+01, 6.80366e+01, 6.23668e+01, 1.19024e-04, 1.04963e-05
6.80366e+01, 8.16441e+01, 7.48404e+01, 4.13342e-05, 3.03759e-06
8.16441e+01, 9.79732e+01, 8.98087e+01, 1.10039e-05, 6.73883e-07
9.79732e+01, 1.17568e+02, 1.07771e+02, 2.10238e-06, 1.07292e-07
1.17568e+02, 1.41082e+02, 1.29325e+02, 2.66323e-07, 1.13262e-08
1.41082e+02, 1.69299e+02, 1.55190e+02, 2.03603e-08, 7.21572e-10
1.69299e+02, 2.03159e+02, 1.86229e+02, 8.40386e-10, 2.48195e-11
2.03159e+02, 2.43790e+02, 2.23475e+02, 1.63977e-11, 4.03566e-13
2.43790e+02, 2.92549e+02, 2.68170e+02, 1.28765e-13, 2.64088e-15
2.92549e+02, 3.51059e+02, 3.21804e+02, 3.34032e-16, 5.70897e-18
3.51059e+02, 4.21271e+02, 3.86165e+02, 2.24384e-19, 3.19580e-21
4.21271e+02, 5.05525e+02, 4.63398e+02, 2.89014e-23, 3.43026e-25
5.05525e+02, 6.06631e+02, 5.56078e+02, 4.92840e-28, 4.87452e-30
6.06631e+02, 7.27957e+02, 6.67294e+02, 7.04848e-34, 5.80952e-36
7.27957e+02, 8.73548e+02, 8.00753e+02, 4.81725e-41, 3.30874e-43
8.73548e+02, 1.04826e+03, 9.60903e+02, 7.87019e-50, 4.50472e-52
1.04826e+03, 1.25791e+03, 1.15308e+03, 1.31057e-60, 6.25115e-63
1.25791e+03, 1.50949e+03, 1.38370e+03, 7.79405e-74, 3.09801e-76
1.50949e+03, 1.81139e+03, 1.66044e+03, 4.55509e-90, 1.50881e-92
1.81139e+03, 2.17367e+03, 1.99253e+03, 5.35450e-110, 1.47801e-112
2.17367e+03, 2.60840e+03, 2.39104e+03, 1.80946e-134, 4.16222e-137
2.60840e+03, 3.13009e+03, 2.86924e+03, 1.63114e-164, 3.12670e-167
3.13009e+03, 3.75610e+03, 3.44309e+03, 2.16727e-201, 3.46200e-204
3.75610e+03, 4.50732e+03, 4.13171e+03, 1.25833e-246, 1.67505e-249
4.50732e+03, 5.40879e+03, 4.95806e+03, 4.49500e-302, 4.98633e-305
5.40879e+03, 6.49055e+03, 5.94967e+03, 0.00000e+00, 0.00000e+00
6.49055e+03, 7.78866e+03, 7.13960e+03, 0.00000e+00, 0.00000e+00
7.78866e+03, 9.34639e+03, 8.56752e+03, 0.00000e+00, 0.00000e+00
9.34639e+03, 1.12157e+04, 1.02810e+04, 0.00000e+00, 0.00000e+00
1.12157e+04, 1.34588e+04, 1.23372e+04, 0.00000e+00, 0.00000e+00
1.34588e+04, 1.61506e+04, 1.48047e+04, 0.00000e+00, 0.00000e+00
1.61506e+04, 1.93807e+04, 1.77656e+04, 0.00000e+00, 0.00000e+00
1.93807e+04, 2.32568e+04, 2.13187e+04, 0.00000e+00, 0.00000e+00
2.32568e+04, 2.79082e+04, 2.55825e+04, 0.00000e+00, 0.00000e+00
2.79082e+04, 3.34898e+04, 3.06990e+04, 0.00000e+00, 0.00000e+00
3.34898e+04, 4.01878e+04, 3.68388e+04, 0.00000e+00, 0.00000e+00
4.01878e+04, 4.82253e+04, 4.42065e+04, 0.00000e+00, 0.00000e+00
4.82253e+04, 5.78704e+04, 5.30478e+04, 0.00000e+00, 0.00000e+00
5.78704e+04, 6.94444e+04, 6.36574e+04, 0.00000e+00, 0.00000e+00
6.94444e+04, 8.33333e+04, 7.63889e+04, 0.00000e+00, 0.00000e+00
8.33333e+04, 1.00000e+05, 9.16667e+04, 0.00000e+00, 0.00000e+00
