# time = 1.700000000000000e-01# start, end, pivot, particles, density
0.00000e+00, 4.82987e-08, 2.41493e-08, 7.85297e-30, 1.62592e-22
4.82987e-08, 1.06257e-07, 7.72779e-08, 1.65375e-28, 2.85334e-21
1.06257e-07, 1.75807e-07, 1.41032e-07, 1.07759e-27, 1.54937e-20
1.75807e-07, 2.59267e-07, 2.17537e-07, 4.52996e-27, 5.42769e-20
2.59267e-07, 3.59420e-07, 3.09343e-07, 1.52437e-26, 1.52205e-19
3.59420e-07, 4.79602e-07, 4.19511e-07, 4.49192e-26, 3.73758e-19
4.79602e-07, 6.23821e-07, 5.51712e-07, 1.21338e-25, 8.41341e-19
6.23821e-07, 7.96884e-07, 7.10353e-07, 3.08505e-25, 1.78262e-18
7.96884e-07, 1.00456e-06, 9.00722e-07, 7.50661e-25, 3.61458e-18
1.00456e-06, 1.25377e-06, 1.12917e-06, 1.76747e-24, 7.09229e-18
1.25377e-06, 1.55282e-06, 1.40330e-06, 4.05832e-24, 1.35706e-17
1.55282e-06, 1.91169e-06, 1.73225e-06, 9.13793e-24, 2.54635e-17
1.91169e-06, 2.34232e-06, 2.12700e-06, 2.02607e-23, 4.70483e-17
2.34232e-06, 2.85909e-06, 2.60070e-06, 4.43740e-23, 8.58692e-17
2.85909e-06, 3.47920e-06, 3.16914e-06, 9.62320e-23, 1.55184e-16
3.47920e-06, 4.22334e-06, 3.85127e-06, 2.07037e-22, 2.78223e-16
4.22334e-06, 5.11631e-06, 4.66982e-06, 4.42546e-22, 4.95591e-16
5.11631e-06, 6.18787e-06, 5.65209e-06, 9.40962e-22, 8.78123e-16
6.18787e-06, 7.47374e-06, 6.83080e-06, 1.99205e-21, 1.54918e-15
7.47374e-06, 9.01679e-06, 8.24526e-06, 4.20225e-21, 2.72335e-15
9.01679e-06, 1.08684e-05, 9.94261e-06, 8.83869e-21, 4.77340e-15
1.08684e-05, 1.30904e-05, 1.19794e-05, 1.85456e-20, 8.34641e-15
1.30904e-05, 1.57568e-05, 1.44236e-05, 3.88351e-20, 1.45647e-14
1.57568e-05, 1.89565e-05, 1.73566e-05, 8.11869e-20, 2.53736e-14
1.89565e-05, 2.27961e-05, 2.08763e-05, 1.69493e-19, 4.41434e-14
2.27961e-05, 2.74036e-05, 2.50998e-05, 3.53444e-19, 7.67103e-14
2.74036e-05, 3.29326e-05, 3.01681e-05, 7.36339e-19, 1.33177e-13
3.29326e-05, 3.95674e-05, 3.62500e-05, 1.53283e-18, 2.31028e-13
3.95674e-05, 4.75292e-05, 4.35483e-05, 3.18878e-18, 4.00511e-13
4.75292e-05, 5.70833e-05, 5.23063e-05, 6.63009e-18, 6.93950e-13
5.70833e-05, 6.85483e-05, 6.28158e-05, 1.37790e-17, 1.20183e-12
6.85483e-05, 8.23063e-05, 7.54273e-05, 2.86253e-17, 2.08064e-12
8.23063e-05, 9.88158e-05, 9.05610e-05, 5.94493e-17, 3.60090e-12
9.88158e-05, 1.18627e-04, 1.08722e-04, 1.23432e-16, 6.23034e-12
1.18627e-04, 1.42401e-04, 1.30514e-04, 2.56221e-16, 1.07775e-11
1.42401e-04, 1.70930e-04, 1.56665e-04, 5.31765e-16, 1.86398e-11
1.70930e-04, 2.05164e-04, 1.88047e-04, 1.10346e-15, 3.22328e-11
2.05164e-04, 2.46245e-04, 2.25704e-04, 2.28949e-15, 5.57311e-11
2.46245e-04, 2.95542e-04, 2.70893e-04, 4.74975e-15, 9.63493e-11
2.95542e-04, 3.54699e-04, 3.25120e-04, 9.85285e-15, 1.66555e-10
3.54699e-04, 4.25687e-04, 3.90193e-04, 2.04370e-14, 2.87893e-10
4.25687e-04, 5.10872e-04, 4.68280e-04, 4.23877e-14, 4.97592e-10
5.10872e-04, 6.13095e-04, 5.61984e-04, 8.79092e-14, 8.59976e-10
6.13095e-04, 7.35763e-04, 6.74429e-04, 1.82307e-13, 1.48619e-09
7.35763e-04, 8.82963e-04, 8.09363e-04, 3.78047e-13, 2.56824e-09
8.82963e-04, 1.05960e-03, 9.71284e-04, 7.83910e-13, 4.43787e-09
1.05960e-03, 1.27157e-03, 1.16559e-03, 1.62540e-12, 7.66812e-09
1.27157e-03, 1.52594e-03, 1.39876e-03, 3.37001e-12, 1.32488e-08
1.52594e-03, 1.83117e-03, 1.67855e-03, 6.98674e-12, 2.28897e-08
1.83117e-03, 2.19745e-03, 2.01431e-03, 1.44840e-11, 3.95432e-08
2.19745e-03, 2.63699e-03, 2.41722e-03, 3.00240e-11, 6.83078e-08
2.63699e-03, 3.16444e-03, 2.90072e-03, 6.22314e-11, 1.17986e-07
3.16444e-03, 3.79738e-03, 3.48091e-03, 1.28975e-10, 2.03773e-07
3.79738e-03, 4.55690e-03, 4.17714e-03, 2.67271e-10, 3.51893e-07
4.55690e-03, 5.46833e-03, 5.01262e-03, 5.53779e-10, 6.07594e-07
5.46833e-03, 6.56204e-03, 6.01519e-03, 1.14722e-09, 1.04892e-06
6.56204e-03, 7.87450e-03, 7.21827e-03, 2.37614e-09, 1.81045e-06
7.87450e-03, 9.44945e-03, 8.66198e-03, 4.92032e-09, 3.12412e-06
9.44945e-03, 1.13394e-02, 1.03944e-02, 1.01857e-08, 5.38944e-06
1.13394e-02, 1.36073e-02, 1.24734e-02, 2.10786e-08, 9.29423e-06
1.36073e-02, 1.63288e-02, 1.49681e-02, 4.36030e-08, 1.60216e-05
1.63288e-02, 1.95946e-02, 1.79617e-02, 9.01527e-08, 2.76050e-05
1.95946e-02, 2.35136e-02, 2.15541e-02, 1.86289e-07, 4.75351e-05
2.35136e-02, 2.82164e-02, 2.58650e-02, 3.84673e-07, 8.17971e-05
2.82164e-02, 3.38597e-02, 3.10381e-02, 7.93654e-07, 1.40636e-04
3.38597e-02, 4.06317e-02, 3.72457e-02, 1.63581e-06, 2.41555e-04
4.06317e-02, 4.87581e-02, 4.46949e-02, 3.36752e-06, 4.14393e-04
4.87581e-02, 5.85098e-02, 5.36339e-02, 6.92240e-06, 7.09869e-04
5.85098e-02, 7.02118e-02, 6.43608e-02, 1.42052e-05, 1.21391e-03
7.02118e-02, 8.42542e-02, 7.72330e-02, 2.90893e-05, 2.07153e-03
8.42542e-02, 1.01105e-01, 9.26796e-02, 5.94196e-05, 3.52620e-03
1.01105e-01, 1.21326e-01, 1.11216e-01, 1.21010e-04, 5.98437e-03
1.21326e-01, 1.45591e-01, 1.33459e-01, 2.45555e-04, 1.01196e-02
1.45591e-01, 1.74710e-01, 1.60151e-01, 4.96134e-04, 1.70386e-02
1.74710e-01, 2.09652e-01, 1.92181e-01, 9.97233e-04, 2.85397e-02
2.09652e-01, 2.51582e-01, 2.30617e-01, 1.99202e-03, 4.75078e-02
2.51582e-01, 3.01899e-01, 2.76740e-01, 3.94959e-03, 7.84950e-02
3.01899e-01, 3.62278e-01, 3.32088e-01, 7.76117e-03, 1.28539e-01
3.62278e-01, 4.34734e-01, 3.98506e-01, 1.50885e-02, 2.08245e-01
4.34734e-01, 5.21681e-01, 4.78207e-01, 2.89591e-02, 3.33067e-01
5.21681e-01, 6.26017e-01, 5.73849e-01, 5.47315e-02, 5.24568e-01
6.26017e-01, 7.51221e-01, 6.88619e-01, 1.01550e-01, 8.11077e-01
7.51221e-01, 9.01465e-01, 8.26343e-01, 1.84301e-01, 1.22668e+00
9.01465e-01, 1.08176e+00, 9.91611e-01, 3.25758e-01, 1.80683e+00
1.08176e+00, 1.29811e+00, 1.18993e+00, 5.57864e-01, 2.57850e+00
1.29811e+00, 1.55773e+00, 1.42792e+00, 9.19905e-01, 3.54325e+00
1.55773e+00, 1.86928e+00, 1.71350e+00, 1.44995e+00, 4.65403e+00
1.86928e+00, 2.24313e+00, 2.05621e+00, 2.16558e+00, 5.79255e+00
2.24313e+00, 2.69176e+00, 2.46745e+00, 3.03349e+00, 6.76173e+00
2.69176e+00, 3.23011e+00, 2.96094e+00, 3.93739e+00, 7.31378e+00
3.23011e+00, 3.87613e+00, 3.55312e+00, 4.66913e+00, 7.22751e+00
3.87613e+00, 4.65136e+00, 4.26375e+00, 4.97652e+00, 6.41943e+00
4.65136e+00, 5.58163e+00, 5.11650e+00, 4.67913e+00, 5.02985e+00
5.58163e+00, 6.69796e+00, 6.13980e+00, 3.80075e+00, 3.40469e+00
6.69796e+00, 8.03755e+00, 7.36776e+00, 2.60713e+00, 1.94621e+00
8.03755e+00, 9.64506e+00, 8.84131e+00, 1.47503e+00, 9.17588e-01
9.64506e+00, 1.15741e+01, 1.06096e+01, 6.72879e-01, 3.48820e-01
1.15741e+01, 1.38889e+01, 1.27315e+01, 2.42802e-01, 1.04890e-01
1.38889e+01, 1.66667e+01, 1.52778e+01, 6.84320e-02, 2.46355e-02
1.66667e+01, 2.00000e+01, 1.83333e+01, 1.17586e-02, 3.52757e-03
