# time = 3.100000000000000e-01# start, end, pivot, particles, density
0.00000e+00, 4.82987e-08, 2.41493e-08, 7.60676e-30, 1.57494e-22
4.82987e-08, 1.06257e-07, 7.72779e-08, 1.52120e-28, 2.62464e-21
1.06257e-07, 1.75807e-07, 1.41032e-07, 9.59279e-28, 1.37926e-20
1.75807e-07, 2.59267e-07, 2.17537e-07, 3.95573e-27, 4.73966e-20
2.59267e-07, 3.59420e-07, 3.09343e-07, 1.31498e-26, 1.31298e-19
3.59420e-07, 4.79602e-07, 4.19511e-07, 3.84296e-26, 3.19760e-19
4.79602e-07, 6.23821e-07, 5.51712e-07, 1.03199e-25, 7.15571e-19
6.23821e-07, 7.96884e-07, 7.10353e-07, 2.61254e-25, 1.50959e-18
7.96884e-07, 1.00456e-06, 9.00722e-07, 6.33615e-25, 3.05098e-18
1.00456e-06, 1.25377e-06, 1.12917e-06, 1.48813e-24, 5.97138e-18
1.25377e-06, 1.55282e-06, 1.40330e-06, 3.41020e-24, 1.14033e-17
1.55282e-06, 1.91169e-06, 1.73225e-06, 7.66662e-24, 2.13636e-17
1.91169e-06, 2.34232e-06, 2.12700e-06, 1.69773e-23, 3.94239e-17
2.34232e-06, 2.85909e-06, 2.60070e-06, 3.71457e-23, 7.18814e-17
2.85909e-06, 3.47920e-06, 3.16914e-06, 8.04908e-23, 1.29800e-16
3.47920e-06, 4.22334e-06, 3.85127e-06, 1.73056e-22, 2.32558e-16
4.22334e-06, 5.11631e-06, 4.66982e-06, 3.69711e-22, 4.14026e-16
5.11631e-06, 6.18787e-06, 5.65209e-06, 7.85748e-22, 7.33274e-16
6.18787e-06, 7.47374e-06, 6.83080e-06, 1.66285e-21, 1.29317e-15
7.47374e-06, 9.01679e-06, 8.24526e-06, 3.50675e-21, 2.27261e-15
9.01679e-06, 1.08684e-05, 9.94261e-06, 7.37398e-21, 3.98237e-15
1.08684e-05, 1.30904e-05, 1.19794e-05, 1.54691e-20, 6.96185e-15
1.30904e-05, 1.57568e-05, 1.44236e-05, 3.23873e-20, 1.21465e-14
1.57568e-05, 1.89565e-05, 1.73566e-05, 6.76980e-20, 2.11579e-14
1.89565e-05, 2.27961e-05, 2.08763e-05, 1.41315e-19, 3.68048e-14
2.27961e-05, 2.74036e-05, 2.50998e-05, 2.94657e-19, 6.39514e-14
2.74036e-05, 3.29326e-05, 3.01681e-05, 6.13818e-19, 1.11018e-13
3.29326e-05, 3.95674e-05, 3.62500e-05, 1.27769e-18, 1.92574e-13
3.95674e-05, 4.75292e-05, 4.35483e-05, 2.65787e-18, 3.33828e-13
4.75292e-05, 5.70833e-05, 5.23063e-05, 5.52596e-18, 5.78384e-13
5.70833e-05, 6.85483e-05, 6.28158e-05, 1.14839e-17, 1.00165e-12
6.85483e-05, 8.23063e-05, 7.54273e-05, 2.38566e-17, 1.73402e-12
8.23063e-05, 9.88158e-05, 9.05610e-05, 4.95442e-17, 3.00094e-12
9.88158e-05, 1.18627e-04, 1.08722e-04, 1.02864e-16, 5.19217e-12
1.18627e-04, 1.42401e-04, 1.30514e-04, 2.13522e-16, 8.98143e-12
1.42401e-04, 1.70930e-04, 1.56665e-04, 4.43141e-16, 1.55333e-11
1.70930e-04, 2.05164e-04, 1.88047e-04, 9.19550e-16, 2.68606e-11
2.05164e-04, 2.46245e-04, 2.25704e-04, 1.90788e-15, 4.64419e-11
2.46245e-04, 2.95542e-04, 2.70893e-04, 3.95805e-15, 8.02894e-11
2.95542e-04, 3.54699e-04, 3.25120e-04, 8.21049e-15, 1.38792e-10
3.54699e-04, 4.25687e-04, 3.90193e-04, 1.70303e-14, 2.39904e-10
4.25687e-04, 5.10872e-04, 4.68280e-04, 3.53219e-14, 4.14646e-10
5.10872e-04, 6.13095e-04, 5.61984e-04, 7.32550e-14, 7.16621e-10
6.13095e-04, 7.35763e-04, 6.74429e-04, 1.51917e-13, 1.23844e-09
7.35763e-04, 8.82963e-04, 8.09363e-04, 3.15028e-13, 2.14013e-09
8.82963e-04, 1.05960e-03, 9.71284e-04, 6.53236e-13, 3.69810e-09
1.05960e-03, 1.27157e-03, 1.16559e-03, 1.35446e-12, 6.38990e-09
1.27157e-03, 1.52594e-03, 1.39876e-03, 2.80827e-12, 1.10404e-08
1.52594e-03, 1.83117e-03, 1.67855e-03, 5.82217e-12, 1.90744e-08
1.83117e-03, 2.19745e-03, 2.01431e-03, 1.20699e-11, 3.29523e-08
2.19745e-03, 2.63699e-03, 2.41722e-03, 2.50199e-11, 5.69231e-08
2.63699e-03, 3.16444e-03, 2.90072e-03, 5.18601e-11, 9.83228e-08
3.16444e-03, 3.79738e-03, 3.48091e-03, 1.07482e-10, 1.69815e-07
3.79738e-03, 4.55690e-03, 4.17714e-03, 2.22736e-10, 2.93257e-07
4.55690e-03, 5.46833e-03, 5.01262e-03, 4.61513e-10, 5.06362e-07
5.46833e-03, 6.56204e-03, 6.01519e-03, 9.56108e-10, 8.74184e-07
6.56204e-03, 7.87450e-03, 7.21827e-03, 1.98037e-09, 1.50890e-06
7.87450e-03, 9.44945e-03, 8.66198e-03, 4.10095e-09, 2.60386e-06
9.44945e-03, 1.13394e-02, 1.03944e-02, 8.48991e-09, 4.49216e-06
1.13394e-02, 1.36073e-02, 1.24734e-02, 1.75703e-08, 7.74728e-06
1.36073e-02, 1.63288e-02, 1.49681e-02, 3.63481e-08, 1.33559e-05
1.63288e-02, 1.95946e-02, 1.79617e-02, 7.51589e-08, 2.30138e-05
1.95946e-02, 2.35136e-02, 2.15541e-02, 1.55322e-07, 3.96332e-05
2.35136e-02, 2.82164e-02, 2.58650e-02, 3.20765e-07, 6.82077e-05
2.82164e-02, 3.38597e-02, 3.10381e-02, 6.61895e-07, 1.17288e-04
3.38597e-02, 4.06317e-02, 3.72457e-02, 1.36447e-06, 2.01488e-04
4.06317e-02, 4.87581e-02, 4.46949e-02, 2.80951e-06, 3.45727e-04
4.87581e-02, 5.85098e-02, 5.36339e-02, 5.77676e-06, 5.92387e-04
5.85098e-02, 7.02118e-02, 6.43608e-02, 1.18578e-05, 1.01331e-03
7.02118e-02, 8.42542e-02, 7.72330e-02, 2.42909e-05, 1.72983e-03
8.42542e-02, 1.01105e-01, 9.26796e-02, 4.96394e-05, 2.94581e-03
1.01105e-01, 1.21326e-01, 1.11216e-01, 1.01145e-04, 5.00194e-03
1.21326e-01, 1.45591e-01, 1.33459e-01, 2.05371e-04, 8.46357e-03
1.45591e-01, 1.74710e-01, 1.60151e-01, 4.15253e-04, 1.42609e-02
1.74710e-01, 2.09652e-01, 1.92181e-01, 8.35413e-04, 2.39086e-02
2.09652e-01, 2.51582e-01, 2.30617e-01, 1.67059e-03, 3.98419e-02
2.51582e-01, 3.01899e-01, 2.76740e-01, 3.31662e-03, 6.59152e-02
3.01899e-01, 3.62278e-01, 3.32088e-01, 6.52765e-03, 1.08110e-01
3.62278e-01, 4.34734e-01, 3.98506e-01, 1.27147e-02, 1.75483e-01
4.34734e-01, 5.21681e-01, 4.78207e-01, 2.44598e-02, 2.81320e-01
5.21681e-01, 6.26017e-01, 5.73849e-01, 4.63585e-02, 4.44318e-01
6.26017e-01, 7.51221e-01, 6.88619e-01, 8.63098e-02, 6.89356e-01
7.51221e-01, 9.01465e-01, 8.26343e-01, 1.57299e-01, 1.04696e+00
9.01465e-01, 1.08176e+00, 9.91611e-01, 2.79460e-01, 1.55004e+00
1.08176e+00, 1.29811e+00, 1.18993e+00, 4.81604e-01, 2.22603e+00
1.29811e+00, 1.55773e+00, 1.42792e+00, 8.00360e-01, 3.08279e+00
1.55773e+00, 1.86928e+00, 1.71350e+00, 1.27377e+00, 4.08854e+00
1.86928e+00, 2.24313e+00, 2.05621e+00, 1.92555e+00, 5.15053e+00
2.24313e+00, 2.69176e+00, 2.46745e+00, 2.73855e+00, 6.10430e+00
2.69176e+00, 3.23011e+00, 2.96094e+00, 3.62370e+00, 6.73110e+00
3.23011e+00, 3.87613e+00, 3.55312e+00, 4.40438e+00, 6.81769e+00
3.87613e+00, 4.65136e+00, 4.26375e+00, 4.84621e+00, 6.25135e+00
4.65136e+00, 5.58163e+00, 5.11650e+00, 4.74987e+00, 5.10589e+00
5.58163e+00, 6.69796e+00, 6.13980e+00, 4.07508e+00, 3.65044e+00
6.69796e+00, 8.03755e+00, 7.36776e+00, 3.00555e+00, 2.24363e+00
8.03755e+00, 9.64506e+00, 8.84131e+00, 1.87267e+00, 1.16495e+00
9.64506e+00, 1.15741e+01, 1.06096e+01, 9.70833e-01, 5.03280e-01
1.15741e+01, 1.38889e+01, 1.27315e+01, 4.14165e-01, 1.78919e-01
1.38889e+01, 1.66667e+01, 1.52778e+01, 1.44603e-01, 5.20573e-02
1.66667e+01, 2.00000e+01, 1.83333e+01, 3.16690e-02, 9.50071e-03
