# time = 6.900000000000001e-01# start, end, pivot, particles, density
0.00000e+00, 4.82987e-08, 2.41493e-08, 6.97670e-30, 1.44449e-22
4.82987e-08, 1.06257e-07, 7.72779e-08, 1.21306e-28, 2.09299e-21
1.06257e-07, 1.75807e-07, 1.41032e-07, 7.01179e-28, 1.00816e-20
1.75807e-07, 2.59267e-07, 2.17537e-07, 2.74647e-27, 3.29076e-20
2.59267e-07, 3.59420e-07, 3.09343e-07, 8.83268e-27, 8.81926e-20
3.59420e-07, 4.79602e-07, 4.19511e-07, 2.52334e-26, 2.09959e-19
4.79602e-07, 6.23821e-07, 5.51712e-07, 6.66655e-26, 4.62252e-19
6.23821e-07, 7.96884e-07, 7.10353e-07, 1.66737e-25, 9.63449e-19
7.96884e-07, 1.00456e-06, 9.00722e-07, 4.00683e-25, 1.92937e-18
1.00456e-06, 1.25377e-06, 1.12917e-06, 9.34381e-25, 3.74936e-18
1.25377e-06, 1.55282e-06, 1.40330e-06, 2.12928e-24, 7.12008e-18
1.55282e-06, 1.91169e-06, 1.73225e-06, 4.76571e-24, 1.32800e-17
1.91169e-06, 2.34232e-06, 2.12700e-06, 1.05159e-23, 2.44195e-17
2.34232e-06, 2.85909e-06, 2.60070e-06, 2.29424e-23, 4.43964e-17
2.85909e-06, 3.47920e-06, 3.16914e-06, 4.95980e-23, 7.99818e-17
3.47920e-06, 4.22334e-06, 3.85127e-06, 1.06433e-22, 1.43029e-16
4.22334e-06, 5.11631e-06, 4.66982e-06, 2.27028e-22, 2.54240e-16
5.11631e-06, 6.18787e-06, 5.65209e-06, 4.81886e-22, 4.49705e-16
6.18787e-06, 7.47374e-06, 6.83080e-06, 1.01873e-21, 7.92247e-16
7.47374e-06, 9.01679e-06, 8.24526e-06, 2.14650e-21, 1.39108e-15
9.01679e-06, 1.08684e-05, 9.94261e-06, 4.51043e-21, 2.43589e-15
1.08684e-05, 1.30904e-05, 1.19794e-05, 9.45637e-21, 4.25582e-15
1.30904e-05, 1.57568e-05, 1.44236e-05, 1.97888e-20, 7.42159e-15
1.57568e-05, 1.89565e-05, 1.73566e-05, 4.13470e-20, 1.29223e-14
1.89565e-05, 2.27961e-05, 2.08763e-05, 8.62802e-20, 2.24712e-14
2.27961e-05, 2.74036e-05, 2.50998e-05, 1.79852e-19, 3.90346e-14
2.74036e-05, 3.29326e-05, 3.01681e-05, 3.74574e-19, 6.77469e-14
3.29326e-05, 3.95674e-05, 3.62500e-05, 7.79543e-19, 1.17493e-13
3.95674e-05, 4.75292e-05, 4.35483e-05, 1.62135e-18, 2.03642e-13
4.75292e-05, 5.70833e-05, 5.23063e-05, 3.37049e-18, 3.52778e-13
5.70833e-05, 6.85483e-05, 6.28158e-05, 7.00368e-18, 6.10877e-13
6.85483e-05, 8.23063e-05, 7.54273e-05, 1.45481e-17, 1.05743e-12
8.23063e-05, 9.88158e-05, 9.05610e-05, 3.02104e-17, 1.82988e-12
9.88158e-05, 1.18627e-04, 1.08722e-04, 6.27194e-17, 3.16581e-12
1.18627e-04, 1.42401e-04, 1.30514e-04, 1.30184e-16, 5.47595e-12
1.42401e-04, 1.70930e-04, 1.56665e-04, 2.70170e-16, 9.47019e-12
1.70930e-04, 2.05164e-04, 1.88047e-04, 5.60603e-16, 1.63755e-11
2.05164e-04, 2.46245e-04, 2.25704e-04, 1.16311e-15, 2.83125e-11
2.46245e-04, 2.95542e-04, 2.70893e-04, 2.41290e-15, 4.89459e-11
2.95542e-04, 3.54699e-04, 3.25120e-04, 5.00518e-15, 8.46088e-11
3.54699e-04, 4.25687e-04, 3.90193e-04, 1.03817e-14, 1.46245e-10
4.25687e-04, 5.10872e-04, 4.68280e-04, 2.15320e-14, 2.52765e-10
5.10872e-04, 6.13095e-04, 5.61984e-04, 4.46555e-14, 4.36845e-10
6.13095e-04, 7.35763e-04, 6.74429e-04, 9.26067e-14, 7.54942e-10
7.35763e-04, 8.82963e-04, 8.09363e-04, 1.92038e-13, 1.30460e-09
8.82963e-04, 1.05960e-03, 9.71284e-04, 3.98207e-13, 2.25433e-09
1.05960e-03, 1.27157e-03, 1.16559e-03, 8.25675e-13, 3.89526e-09
1.27157e-03, 1.52594e-03, 1.39876e-03, 1.71193e-12, 6.73027e-09
1.52594e-03, 1.83117e-03, 1.67855e-03, 3.54927e-12, 1.16280e-08
1.83117e-03, 2.19745e-03, 2.01431e-03, 7.35808e-12, 2.00885e-08
2.19745e-03, 2.63699e-03, 2.41722e-03, 1.52532e-11, 3.47026e-08
2.63699e-03, 3.16444e-03, 2.90072e-03, 3.16170e-11, 5.99435e-08
3.16444e-03, 3.79738e-03, 3.48091e-03, 6.55302e-11, 1.03534e-07
3.79738e-03, 4.55690e-03, 4.17714e-03, 1.35805e-10, 1.78803e-07
4.55690e-03, 5.46833e-03, 5.01262e-03, 2.81407e-10, 3.08753e-07
5.46833e-03, 6.56204e-03, 6.01519e-03, 5.83025e-10, 5.33069e-07
6.56204e-03, 7.87450e-03, 7.21827e-03, 1.20771e-09, 9.20190e-07
7.87450e-03, 9.44945e-03, 8.66198e-03, 2.50118e-09, 1.58810e-06
9.44945e-03, 1.13394e-02, 1.03944e-02, 5.17865e-09, 2.74012e-06
1.13394e-02, 1.36073e-02, 1.24734e-02, 1.07190e-08, 4.72636e-06
1.36073e-02, 1.63288e-02, 1.49681e-02, 2.21787e-08, 8.14940e-06
1.63288e-02, 1.95946e-02, 1.79617e-02, 4.58696e-08, 1.40454e-05
1.95946e-02, 2.35136e-02, 2.15541e-02, 9.48172e-08, 2.41944e-05
2.35136e-02, 2.82164e-02, 2.58650e-02, 1.95873e-07, 4.16506e-05
2.82164e-02, 3.38597e-02, 3.10381e-02, 4.04329e-07, 7.16474e-05
3.38597e-02, 4.06317e-02, 3.72457e-02, 8.33877e-07, 1.23136e-04
4.06317e-02, 4.87581e-02, 4.46949e-02, 1.71790e-06, 2.11397e-04
4.87581e-02, 5.85098e-02, 5.36339e-02, 3.53449e-06, 3.62450e-04
5.85098e-02, 7.02118e-02, 6.43608e-02, 7.26068e-06, 6.20465e-04
7.02118e-02, 8.42542e-02, 7.72330e-02, 1.48872e-05, 1.06016e-03
8.42542e-02, 1.01105e-01, 9.26796e-02, 3.04561e-05, 1.80739e-03
1.01105e-01, 1.21326e-01, 1.11216e-01, 6.21391e-05, 3.07299e-03
1.21326e-01, 1.45591e-01, 1.33459e-01, 1.26373e-04, 5.20796e-03
1.45591e-01, 1.74710e-01, 1.60151e-01, 2.56011e-04, 8.79208e-03
1.74710e-01, 2.09652e-01, 1.92181e-01, 5.16236e-04, 1.47741e-02
2.09652e-01, 2.51582e-01, 2.30617e-01, 1.03520e-03, 2.46884e-02
2.51582e-01, 3.01899e-01, 2.76740e-01, 2.06207e-03, 4.09821e-02
3.01899e-01, 3.62278e-01, 3.32088e-01, 4.07495e-03, 6.74887e-02
3.62278e-01, 4.34734e-01, 3.98506e-01, 7.97618e-03, 1.10084e-01
4.34734e-01, 5.21681e-01, 4.78207e-01, 1.54351e-02, 1.77523e-01
5.21681e-01, 6.26017e-01, 5.73849e-01, 2.94644e-02, 2.82398e-01
6.26017e-01, 7.51221e-01, 6.88619e-01, 5.53359e-02, 4.41968e-01
7.51221e-01, 9.01465e-01, 8.26343e-01, 1.01923e-01, 6.78384e-01
9.01465e-01, 1.08176e+00, 9.91611e-01, 1.83433e-01, 1.01742e+00
1.08176e+00, 1.29811e+00, 1.18993e+00, 3.21155e-01, 1.48441e+00
1.29811e+00, 1.55773e+00, 1.42792e+00, 5.44178e-01, 2.09604e+00
1.55773e+00, 1.86928e+00, 1.71350e+00, 8.87036e-01, 2.84720e+00
1.86928e+00, 2.24313e+00, 2.05621e+00, 1.38126e+00, 3.69465e+00
2.24313e+00, 2.69176e+00, 2.46745e+00, 2.03824e+00, 4.54330e+00
2.69176e+00, 3.23011e+00, 2.96094e+00, 2.82433e+00, 5.24624e+00
3.23011e+00, 3.87613e+00, 3.55312e+00, 3.63767e+00, 5.63088e+00
3.87613e+00, 4.65136e+00, 4.26375e+00, 4.30670e+00, 5.55541e+00
4.65136e+00, 5.58163e+00, 5.11650e+00, 4.63180e+00, 4.97898e+00
5.58163e+00, 6.69796e+00, 6.13980e+00, 4.47128e+00, 4.00535e+00
6.69796e+00, 8.03755e+00, 7.36776e+00, 3.83006e+00, 2.85912e+00
8.03755e+00, 9.64506e+00, 8.84131e+00, 2.88193e+00, 1.79279e+00
9.64506e+00, 1.15741e+01, 1.06096e+01, 1.89005e+00, 9.79803e-01
1.15741e+01, 1.38889e+01, 1.27315e+01, 1.07514e+00, 4.64459e-01
1.38889e+01, 1.66667e+01, 1.52778e+01, 5.29576e-01, 1.90648e-01
1.66667e+01, 2.00000e+01, 1.83333e+01, 1.54326e-01, 4.62978e-02
