# time = 7.900000000000000e-01# start, end, pivot, particles, density
0.00000e+00, 4.82987e-08, 2.41493e-08, 6.81975e-30, 1.41199e-22
4.82987e-08, 1.06257e-07, 7.72779e-08, 1.14304e-28, 1.97218e-21
1.06257e-07, 1.75807e-07, 1.41032e-07, 6.46032e-28, 9.28873e-21
1.75807e-07, 2.59267e-07, 2.17537e-07, 2.49693e-27, 2.99176e-20
2.59267e-07, 3.59420e-07, 3.09343e-07, 7.96063e-27, 7.94853e-20
3.59420e-07, 4.79602e-07, 4.19511e-07, 2.26052e-26, 1.88090e-19
4.79602e-07, 6.23821e-07, 5.51712e-07, 5.94612e-26, 4.12297e-19
6.23821e-07, 7.96884e-07, 7.10353e-07, 1.48233e-25, 8.56526e-19
7.96884e-07, 1.00456e-06, 9.00722e-07, 3.55326e-25, 1.71096e-18
1.00456e-06, 1.25377e-06, 1.12917e-06, 8.26998e-25, 3.31847e-18
1.25377e-06, 1.55282e-06, 1.40330e-06, 1.88169e-24, 6.29216e-18
1.55282e-06, 1.91169e-06, 1.73225e-06, 4.20641e-24, 1.17215e-17
1.91169e-06, 2.34232e-06, 2.12700e-06, 9.27268e-24, 2.15325e-17
2.34232e-06, 2.85909e-06, 2.60070e-06, 2.02140e-23, 3.91165e-17
2.85909e-06, 3.47920e-06, 3.16914e-06, 4.36713e-23, 7.04245e-17
3.47920e-06, 4.22334e-06, 3.85127e-06, 9.36660e-23, 1.25872e-16
4.22334e-06, 5.11631e-06, 4.66982e-06, 1.99708e-22, 2.23645e-16
5.11631e-06, 6.18787e-06, 5.65209e-06, 4.23747e-22, 3.95448e-16
6.18787e-06, 7.47374e-06, 6.83080e-06, 8.95557e-22, 6.96459e-16
7.47374e-06, 9.01679e-06, 8.24526e-06, 1.88652e-21, 1.22260e-15
9.01679e-06, 1.08684e-05, 9.94261e-06, 3.96335e-21, 2.14043e-15
1.08684e-05, 1.30904e-05, 1.19794e-05, 8.30800e-21, 3.73899e-15
1.30904e-05, 1.57568e-05, 1.44236e-05, 1.73833e-20, 6.51943e-15
1.57568e-05, 1.89565e-05, 1.73566e-05, 3.63167e-20, 1.13502e-14
1.89565e-05, 2.27961e-05, 2.08763e-05, 7.57763e-20, 1.97355e-14
2.27961e-05, 2.74036e-05, 2.50998e-05, 1.57944e-19, 3.42798e-14
2.74036e-05, 3.29326e-05, 3.01681e-05, 3.28925e-19, 5.94908e-14
3.29326e-05, 3.95674e-05, 3.62500e-05, 6.84505e-19, 1.03169e-13
3.95674e-05, 4.75292e-05, 4.35483e-05, 1.42362e-18, 1.78807e-13
4.75292e-05, 5.70833e-05, 5.23063e-05, 2.95934e-18, 3.09744e-13
5.70833e-05, 6.85483e-05, 6.28158e-05, 6.14913e-18, 5.36341e-13
6.85483e-05, 8.23063e-05, 7.54273e-05, 1.27727e-17, 9.28384e-13
8.23063e-05, 9.88158e-05, 9.05610e-05, 2.65231e-17, 1.60653e-12
9.88158e-05, 1.18627e-04, 1.08722e-04, 5.50632e-17, 2.77936e-12
1.18627e-04, 1.42401e-04, 1.30514e-04, 1.14291e-16, 4.80742e-12
1.42401e-04, 1.70930e-04, 1.56665e-04, 2.37184e-16, 8.31393e-12
1.70930e-04, 2.05164e-04, 1.88047e-04, 4.92151e-16, 1.43760e-11
2.05164e-04, 2.46245e-04, 2.25704e-04, 1.02108e-15, 2.48553e-11
2.46245e-04, 2.95542e-04, 2.70893e-04, 2.11824e-15, 4.29688e-11
2.95542e-04, 3.54699e-04, 3.25120e-04, 4.39394e-15, 7.42763e-11
3.54699e-04, 4.25687e-04, 3.90193e-04, 9.11380e-15, 1.28385e-10
4.25687e-04, 5.10872e-04, 4.68280e-04, 1.89024e-14, 2.21896e-10
5.10872e-04, 6.13095e-04, 5.61984e-04, 3.92018e-14, 3.83494e-10
6.13095e-04, 7.35763e-04, 6.74429e-04, 8.12967e-14, 6.62741e-10
7.35763e-04, 8.82963e-04, 8.09363e-04, 1.68584e-13, 1.14527e-09
8.82963e-04, 1.05960e-03, 9.71284e-04, 3.49575e-13, 1.97901e-09
1.05960e-03, 1.27157e-03, 1.16559e-03, 7.24838e-13, 3.41955e-09
1.27157e-03, 1.52594e-03, 1.39876e-03, 1.50286e-12, 5.90834e-09
1.52594e-03, 1.83117e-03, 1.67855e-03, 3.11583e-12, 1.02080e-08
1.83117e-03, 2.19745e-03, 2.01431e-03, 6.45954e-12, 1.76354e-08
2.19745e-03, 2.63699e-03, 2.41722e-03, 1.33906e-11, 3.04651e-08
2.63699e-03, 3.16444e-03, 2.90072e-03, 2.77565e-11, 5.26242e-08
3.16444e-03, 3.79738e-03, 3.48091e-03, 5.75293e-11, 9.08927e-08
3.79738e-03, 4.55690e-03, 4.17714e-03, 1.19225e-10, 1.56974e-07
4.55690e-03, 5.46833e-03, 5.01262e-03, 2.47055e-10, 2.71063e-07
5.46833e-03, 6.56204e-03, 6.01519e-03, 5.11863e-10, 4.68004e-07
6.56204e-03, 7.87450e-03, 7.21827e-03, 1.06032e-09, 8.07891e-07
7.87450e-03, 9.44945e-03, 8.66198e-03, 2.19600e-09, 1.39433e-06
9.44945e-03, 1.13394e-02, 1.03944e-02, 4.54691e-09, 2.40585e-06
1.13394e-02, 1.36073e-02, 1.24734e-02, 9.41176e-09, 4.14994e-06
1.36073e-02, 1.63288e-02, 1.49681e-02, 1.94747e-08, 7.15583e-06
1.63288e-02, 1.95946e-02, 1.79617e-02, 4.02794e-08, 1.23336e-05
1.95946e-02, 2.35136e-02, 2.15541e-02, 8.32669e-08, 2.12471e-05
2.35136e-02, 2.82164e-02, 2.58650e-02, 1.72026e-07, 3.65796e-05
2.82164e-02, 3.38597e-02, 3.10381e-02, 3.55135e-07, 6.29301e-05
3.38597e-02, 4.06317e-02, 3.72457e-02, 7.32500e-07, 1.08166e-04
4.06317e-02, 4.87581e-02, 4.46949e-02, 1.50925e-06, 1.85722e-04
4.87581e-02, 5.85098e-02, 5.36339e-02, 3.10569e-06, 3.18478e-04
5.85098e-02, 7.02118e-02, 6.43608e-02, 6.38105e-06, 5.45295e-04
7.02118e-02, 8.42542e-02, 7.72330e-02, 1.30866e-05, 9.31938e-04
8.42542e-02, 1.01105e-01, 9.26796e-02, 2.67799e-05, 1.58923e-03
1.01105e-01, 1.21326e-01, 1.11216e-01, 5.46566e-05, 2.70296e-03
1.21326e-01, 1.45591e-01, 1.33459e-01, 1.11200e-04, 4.58266e-03
1.45591e-01, 1.74710e-01, 1.60151e-01, 2.25380e-04, 7.74016e-03
1.74710e-01, 2.09652e-01, 1.92181e-01, 4.54733e-04, 1.30139e-02
2.09652e-01, 2.51582e-01, 2.30617e-01, 9.12498e-04, 2.17622e-02
2.51582e-01, 3.01899e-01, 2.76740e-01, 1.81918e-03, 3.61548e-02
3.01899e-01, 3.62278e-01, 3.32088e-01, 3.59858e-03, 5.95992e-02
3.62278e-01, 4.34734e-01, 3.98506e-01, 7.05233e-03, 9.73329e-02
4.34734e-01, 5.21681e-01, 4.78207e-01, 1.36674e-02, 1.57192e-01
5.21681e-01, 6.26017e-01, 5.73849e-01, 2.61363e-02, 2.50501e-01
6.26017e-01, 7.51221e-01, 6.88619e-01, 4.91914e-02, 3.92892e-01
7.51221e-01, 9.01465e-01, 8.26343e-01, 9.08427e-02, 6.04634e-01
9.01465e-01, 1.08176e+00, 9.91611e-01, 1.64012e-01, 9.09696e-01
1.08176e+00, 1.29811e+00, 1.18993e+00, 2.88266e-01, 1.33240e+00
1.29811e+00, 1.55773e+00, 1.42792e+00, 4.90768e-01, 1.89032e+00
1.55773e+00, 1.86928e+00, 1.71350e+00, 8.04628e-01, 2.58269e+00
1.86928e+00, 2.24313e+00, 2.05621e+00, 1.26190e+00, 3.37538e+00
2.24313e+00, 2.69176e+00, 2.46745e+00, 1.87855e+00, 4.18734e+00
2.69176e+00, 3.23011e+00, 2.96094e+00, 2.63150e+00, 4.88806e+00
3.23011e+00, 3.87613e+00, 3.55312e+00, 3.43529e+00, 5.31760e+00
3.87613e+00, 4.65136e+00, 4.26375e+00, 4.13570e+00, 5.33483e+00
4.65136e+00, 5.58163e+00, 5.11650e+00, 4.54123e+00, 4.88161e+00
5.58163e+00, 6.69796e+00, 6.13980e+00, 4.49803e+00, 4.02931e+00
6.69796e+00, 8.03755e+00, 7.36776e+00, 3.97685e+00, 2.96870e+00
8.03755e+00, 9.64506e+00, 8.84131e+00, 3.11002e+00, 1.93468e+00
9.64506e+00, 1.15741e+01, 1.06096e+01, 2.13631e+00, 1.10746e+00
1.15741e+01, 1.38889e+01, 1.27315e+01, 1.28343e+00, 5.54440e-01
1.38889e+01, 1.66667e+01, 1.52778e+01, 6.73359e-01, 2.42409e-01
1.66667e+01, 2.00000e+01, 1.83333e+01, 2.05399e-01, 6.16196e-02
