# time = 6.000000000000000e-01# start, end, pivot, particles, density
0.00000e+00, 7.25710e-04, 3.62855e-04, 1.94293e-03, 2.67729e+00
7.25710e-04, 1.52399e-03, 1.12485e-03, 2.13499e-03, 2.67448e+00
1.52399e-03, 2.40210e-03, 1.96305e-03, 2.34444e-03, 2.66988e+00
2.40210e-03, 3.36802e-03, 2.88506e-03, 2.57517e-03, 2.66603e+00
3.36802e-03, 4.43053e-03, 3.89928e-03, 2.82819e-03, 2.66180e+00
4.43053e-03, 5.59929e-03, 5.01491e-03, 3.10471e-03, 2.65641e+00
5.59929e-03, 6.88493e-03, 6.24211e-03, 3.40897e-03, 2.65158e+00
6.88493e-03, 8.29914e-03, 7.59203e-03, 3.74267e-03, 2.64649e+00
8.29914e-03, 9.85476e-03, 9.07695e-03, 4.10393e-03, 2.63812e+00
9.85476e-03, 1.15659e-02, 1.07104e-02, 4.50700e-03, 2.63385e+00
1.15659e-02, 1.34482e-02, 1.25071e-02, 4.93711e-03, 2.62291e+00
1.34482e-02, 1.55188e-02, 1.44835e-02, 5.41806e-03, 2.61674e+00
1.55188e-02, 1.77964e-02, 1.66576e-02, 5.93779e-03, 2.60705e+00
1.77964e-02, 2.03017e-02, 1.90490e-02, 6.50562e-03, 2.59669e+00
2.03017e-02, 2.30576e-02, 2.16797e-02, 7.12628e-03, 2.58584e+00
2.30576e-02, 2.60891e-02, 2.45733e-02, 7.80042e-03, 2.57315e+00
2.60891e-02, 2.94237e-02, 2.77564e-02, 8.54126e-03, 2.56139e+00
2.94237e-02, 3.30918e-02, 3.12577e-02, 9.32766e-03, 2.54293e+00
3.30918e-02, 3.71267e-02, 3.51092e-02, 1.02165e-02, 2.53204e+00
3.71267e-02, 4.15650e-02, 3.93458e-02, 1.11466e-02, 2.51141e+00
4.15650e-02, 4.64472e-02, 4.40061e-02, 1.21766e-02, 2.49407e+00
4.64472e-02, 5.18177e-02, 4.91325e-02, 1.32767e-02, 2.47219e+00
5.18177e-02, 5.77252e-02, 5.47714e-02, 1.44597e-02, 2.44769e+00
5.77252e-02, 6.42234e-02, 6.09743e-02, 1.57844e-02, 2.42903e+00
6.42234e-02, 7.13714e-02, 6.77974e-02, 1.71242e-02, 2.39564e+00
7.13714e-02, 7.92343e-02, 7.53029e-02, 1.86478e-02, 2.37164e+00
7.92343e-02, 8.78834e-02, 8.35588e-02, 2.02067e-02, 2.33626e+00
8.78834e-02, 9.73975e-02, 9.26404e-02, 2.19065e-02, 2.30255e+00
9.73975e-02, 1.07863e-01, 1.02630e-01, 2.37038e-02, 2.26496e+00
1.07863e-01, 1.19375e-01, 1.13619e-01, 2.56560e-02, 2.22863e+00
1.19375e-01, 1.32038e-01, 1.25707e-01, 2.76317e-02, 2.18205e+00
1.32038e-01, 1.45968e-01, 1.39003e-01, 2.97009e-02, 2.13222e+00
1.45968e-01, 1.61290e-01, 1.53629e-01, 3.20221e-02, 2.08988e+00
1.61290e-01, 1.78145e-01, 1.69717e-01, 3.42245e-02, 2.03056e+00
1.78145e-01, 1.96685e-01, 1.87415e-01, 3.65501e-02, 1.97140e+00
1.96685e-01, 2.17079e-01, 2.06882e-01, 3.89592e-02, 1.91031e+00
2.17079e-01, 2.39513e-01, 2.28296e-01, 4.15245e-02, 1.85099e+00
2.39513e-01, 2.64190e-01, 2.51851e-01, 4.37341e-02, 1.77226e+00
2.64190e-01, 2.91335e-01, 2.77762e-01, 4.62801e-02, 1.70494e+00
2.91335e-01, 3.21194e-01, 3.06264e-01, 4.86329e-02, 1.62874e+00
3.21194e-01, 3.54039e-01, 3.37616e-01, 5.07568e-02, 1.54534e+00
3.54039e-01, 3.90168e-01, 3.72104e-01, 5.27549e-02, 1.46016e+00
3.90168e-01, 4.29911e-01, 4.10040e-01, 5.44390e-02, 1.36979e+00
4.29911e-01, 4.73628e-01, 4.51769e-01, 5.60930e-02, 1.28310e+00
4.73628e-01, 5.21716e-01, 4.97672e-01, 5.71558e-02, 1.18856e+00
5.21716e-01, 5.74614e-01, 5.48165e-01, 5.79381e-02, 1.09529e+00
5.74614e-01, 6.32801e-01, 6.03707e-01, 5.82052e-02, 1.00031e+00
6.32801e-01, 6.96806e-01, 6.64804e-01, 5.80946e-02, 9.07647e-01
6.96806e-01, 7.67213e-01, 7.32010e-01, 5.70594e-02, 8.10429e-01
7.67213e-01, 8.44660e-01, 8.05936e-01, 5.56227e-02, 7.18203e-01
8.44660e-01, 9.29852e-01, 8.87256e-01, 5.36228e-02, 6.29437e-01
9.29852e-01, 1.02356e+00, 9.76707e-01, 5.09598e-02, 5.43798e-01
1.02356e+00, 1.12664e+00, 1.07510e+00, 4.77275e-02, 4.63006e-01
1.12664e+00, 1.24003e+00, 1.18334e+00, 4.39784e-02, 3.87851e-01
1.24003e+00, 1.36476e+00, 1.30240e+00, 3.98142e-02, 3.19205e-01
1.36476e+00, 1.50197e+00, 1.43336e+00, 3.53432e-02, 2.57599e-01
1.50197e+00, 1.65289e+00, 1.57743e+00, 3.07550e-02, 2.03780e-01
1.65289e+00, 1.81890e+00, 1.73590e+00, 2.60037e-02, 1.56635e-01
1.81890e+00, 2.00152e+00, 1.91021e+00, 2.15305e-02, 1.17901e-01
2.00152e+00, 2.20240e+00, 2.10196e+00, 1.72907e-02, 8.60756e-02
2.20240e+00, 2.42336e+00, 2.31288e+00, 1.34526e-02, 6.08809e-02
2.42336e+00, 2.66642e+00, 2.54489e+00, 1.01071e-02, 4.15826e-02
2.66642e+00, 2.93379e+00, 2.80011e+00, 7.30669e-03, 2.73282e-02
2.93379e+00, 3.22790e+00, 3.08084e+00, 5.06352e-03, 1.72167e-02
3.22790e+00, 3.55141e+00, 3.38965e+00, 3.34881e-03, 1.03513e-02
3.55141e+00, 3.90728e+00, 3.72934e+00, 2.10377e-03, 5.91169e-03
3.90728e+00, 4.29873e+00, 4.10301e+00, 1.24883e-03, 3.19023e-03
4.29873e+00, 4.72933e+00, 4.51403e+00, 6.96578e-04, 1.61770e-03
4.72933e+00, 5.20299e+00, 4.96616e+00, 3.62723e-04, 7.65790e-04
5.20299e+00, 5.72401e+00, 5.46350e+00, 1.75139e-04, 3.36143e-04
5.72401e+00, 6.29714e+00, 6.01058e+00, 7.78107e-05, 1.35765e-04
6.29714e+00, 6.92758e+00, 6.61236e+00, 3.15512e-05, 5.00464e-05
6.92758e+00, 7.62106e+00, 7.27432e+00, 1.15692e-05, 1.66827e-05
7.62106e+00, 8.38390e+00, 8.00248e+00, 3.79798e-06, 4.97878e-06
8.38390e+00, 9.22301e+00, 8.80345e+00, 1.10440e-06, 1.31615e-06
9.22301e+00, 1.01460e+01, 9.68453e+00, 2.81076e-07, 3.04516e-07
1.01460e+01, 1.11614e+01, 1.06537e+01, 6.18067e-08, 6.08736e-08
1.11614e+01, 1.22782e+01, 1.17198e+01, 1.15790e-08, 1.03674e-08
1.22782e+01, 1.35068e+01, 1.28925e+01, 1.81990e-09, 1.48134e-09
1.35068e+01, 1.48582e+01, 1.41825e+01, 2.36059e-10, 1.74677e-10
1.48582e+01, 1.63447e+01, 1.56015e+01, 2.48132e-11, 1.66919e-11
1.63447e+01, 1.79799e+01, 1.71623e+01, 2.07290e-12, 1.26767e-12
1.79799e+01, 1.97786e+01, 1.88793e+01, 1.34737e-13, 7.49073e-14
1.97786e+01, 2.17572e+01, 2.07679e+01, 6.65918e-15, 3.36562e-15
2.17572e+01, 2.39337e+01, 2.28455e+01, 2.44109e-16, 1.12159e-16
2.39337e+01, 2.63278e+01, 2.51307e+01, 6.46094e-18, 2.69870e-18
2.63278e+01, 2.89613e+01, 2.76445e+01, 1.19935e-19, 4.55421e-20
2.89613e+01, 3.18581e+01, 3.04097e+01, 1.51342e-21, 5.22436e-22
3.18581e+01, 3.50447e+01, 3.34514e+01, 1.25531e-23, 3.93941e-24
3.50447e+01, 3.85499e+01, 3.67973e+01, 6.60230e-26, 1.88358e-26
3.85499e+01, 4.24056e+01, 4.04777e+01, 2.12027e-28, 5.49904e-29
4.24056e+01, 4.66469e+01, 4.45262e+01, 3.99373e-31, 9.41631e-32
4.66469e+01, 5.13123e+01, 4.89796e+01, 4.23378e-34, 9.07483e-35
5.13123e+01, 5.64442e+01, 5.38783e+01, 2.42196e-37, 4.71937e-38
5.64442e+01, 6.20894e+01, 5.92668e+01, 7.17094e-41, 1.27028e-41
6.20894e+01, 6.82990e+01, 6.51942e+01, 1.05564e-44, 1.70000e-45
6.82990e+01, 7.51297e+01, 7.17144e+01, 7.44010e-49, 1.08923e-49
7.51297e+01, 8.26434e+01, 7.88865e+01, 2.42653e-53, 3.22948e-54
8.26434e+01, 9.09084e+01, 8.67759e+01, 2.65267e-59, 3.20950e-60
9.09084e+01, 1.00000e+02, 9.54542e+01, 9.19490e-63, 1.01137e-63
