# time = 9.900000000000000e-01# start, end, pivot, particles, density
0.00000e+00, 7.25710e-04, 3.62855e-04, 2.41831e-03, 3.33234e+00
7.25710e-04, 1.52399e-03, 1.12485e-03, 2.65750e-03, 3.32903e+00
1.52399e-03, 2.40210e-03, 1.96305e-03, 2.91687e-03, 3.32177e+00
2.40210e-03, 3.36802e-03, 2.88506e-03, 3.20356e-03, 3.31659e+00
3.36802e-03, 4.43053e-03, 3.89928e-03, 3.51757e-03, 3.31062e+00
4.43053e-03, 5.59929e-03, 5.01491e-03, 3.86056e-03, 3.30312e+00
5.59929e-03, 6.88493e-03, 6.24211e-03, 4.23851e-03, 3.29681e+00
6.88493e-03, 8.29914e-03, 7.59203e-03, 4.65222e-03, 3.28964e+00
8.29914e-03, 9.85476e-03, 9.07695e-03, 5.09811e-03, 3.27721e+00
9.85476e-03, 1.15659e-02, 1.07104e-02, 5.60077e-03, 3.27304e+00
1.15659e-02, 1.34482e-02, 1.25071e-02, 6.12799e-03, 3.25558e+00
1.34482e-02, 1.55188e-02, 1.44835e-02, 6.72666e-03, 3.24876e+00
1.55188e-02, 1.77964e-02, 1.66576e-02, 7.36821e-03, 3.23509e+00
1.77964e-02, 2.03017e-02, 1.90490e-02, 8.06750e-03, 3.22011e+00
2.03017e-02, 2.30576e-02, 2.16797e-02, 8.83325e-03, 3.20523e+00
2.30576e-02, 2.60891e-02, 2.45733e-02, 9.66446e-03, 3.18805e+00
2.60891e-02, 2.94237e-02, 2.77564e-02, 1.05778e-02, 3.17212e+00
2.94237e-02, 3.30918e-02, 3.12577e-02, 1.15337e-02, 3.14433e+00
3.30918e-02, 3.71267e-02, 3.51092e-02, 1.26432e-02, 3.13347e+00
3.71267e-02, 4.15650e-02, 3.93458e-02, 1.37631e-02, 3.10094e+00
4.15650e-02, 4.64472e-02, 4.40061e-02, 1.50325e-02, 3.07904e+00
4.64472e-02, 5.18177e-02, 4.91325e-02, 1.63722e-02, 3.04858e+00
5.18177e-02, 5.77252e-02, 5.47714e-02, 1.78053e-02, 3.01402e+00
5.77252e-02, 6.42234e-02, 6.09743e-02, 1.94329e-02, 2.99050e+00
6.42234e-02, 7.13714e-02, 6.77974e-02, 2.10273e-02, 2.94169e+00
7.13714e-02, 7.92343e-02, 7.53029e-02, 2.28970e-02, 2.91205e+00
7.92343e-02, 8.78834e-02, 8.35588e-02, 2.47452e-02, 2.86100e+00
8.78834e-02, 9.73975e-02, 9.26404e-02, 2.67856e-02, 2.81537e+00
9.73975e-02, 1.07863e-01, 1.02630e-01, 2.89394e-02, 2.76523e+00
1.07863e-01, 1.19375e-01, 1.13619e-01, 3.12661e-02, 2.71596e+00
1.19375e-01, 1.32038e-01, 1.25707e-01, 3.35581e-02, 2.65005e+00
1.32038e-01, 1.45968e-01, 1.39003e-01, 3.59977e-02, 2.58427e+00
1.45968e-01, 1.61290e-01, 1.53629e-01, 3.87466e-02, 2.52875e+00
1.61290e-01, 1.78145e-01, 1.69717e-01, 4.12313e-02, 2.44628e+00
1.78145e-01, 1.96685e-01, 1.87415e-01, 4.38800e-02, 2.36675e+00
1.96685e-01, 2.17079e-01, 2.06882e-01, 4.66097e-02, 2.28544e+00
2.17079e-01, 2.39513e-01, 2.28296e-01, 4.95489e-02, 2.20869e+00
2.39513e-01, 2.64190e-01, 2.51851e-01, 5.18213e-02, 2.09998e+00
2.64190e-01, 2.91335e-01, 2.77762e-01, 5.46898e-02, 2.01475e+00
2.91335e-01, 3.21194e-01, 3.06264e-01, 5.71468e-02, 1.91388e+00
3.21194e-01, 3.54039e-01, 3.37616e-01, 5.92736e-02, 1.80464e+00
3.54039e-01, 3.90168e-01, 3.72104e-01, 6.11772e-02, 1.69327e+00
3.90168e-01, 4.29911e-01, 4.10040e-01, 6.26062e-02, 1.57529e+00
4.29911e-01, 4.73628e-01, 4.51769e-01, 6.41005e-02, 1.46627e+00
4.73628e-01, 5.21716e-01, 4.97672e-01, 6.46901e-02, 1.34523e+00
5.21716e-01, 5.74614e-01, 5.48165e-01, 6.49787e-02, 1.22839e+00
5.74614e-01, 6.32801e-01, 6.03707e-01, 6.45922e-02, 1.11008e+00
6.32801e-01, 6.96806e-01, 6.64804e-01, 6.38089e-02, 9.96924e-01
6.96806e-01, 7.67213e-01, 7.32010e-01, 6.17665e-02, 8.77286e-01
7.67213e-01, 8.44660e-01, 8.05936e-01, 5.93784e-02, 7.66697e-01
8.44660e-01, 9.29852e-01, 8.87256e-01, 5.63953e-02, 6.61981e-01
9.29852e-01, 1.02356e+00, 9.76707e-01, 5.26941e-02, 5.62305e-01
1.02356e+00, 1.12664e+00, 1.07510e+00, 4.84466e-02, 4.69982e-01
1.12664e+00, 1.24003e+00, 1.18334e+00, 4.37325e-02, 3.85682e-01
1.24003e+00, 1.36476e+00, 1.30240e+00, 3.87133e-02, 3.10379e-01
1.36476e+00, 1.50197e+00, 1.43336e+00, 3.35244e-02, 2.44343e-01
1.50197e+00, 1.65289e+00, 1.57743e+00, 2.84039e-02, 1.88202e-01
1.65289e+00, 1.81890e+00, 1.73590e+00, 2.32800e-02, 1.40229e-01
1.81890e+00, 2.00152e+00, 1.91021e+00, 1.86628e-02, 1.02197e-01
2.00152e+00, 2.20240e+00, 2.10196e+00, 1.44548e-02, 7.19582e-02
2.20240e+00, 2.42336e+00, 2.31288e+00, 1.08073e-02, 4.89094e-02
2.42336e+00, 2.66642e+00, 2.54489e+00, 7.77167e-03, 3.19741e-02
2.66642e+00, 2.93379e+00, 2.80011e+00, 5.35378e-03, 2.00240e-02
2.93379e+00, 3.22790e+00, 3.08084e+00, 3.51886e-03, 1.19646e-02
3.22790e+00, 3.55141e+00, 3.38965e+00, 2.19548e-03, 6.78632e-03
3.55141e+00, 3.90728e+00, 3.72934e+00, 1.29364e-03, 3.63517e-03
3.90728e+00, 4.29873e+00, 4.10301e+00, 7.15688e-04, 1.82828e-03
4.29873e+00, 4.72933e+00, 4.51403e+00, 3.69492e-04, 8.58089e-04
4.72933e+00, 5.20299e+00, 4.96616e+00, 1.76718e-04, 3.73092e-04
5.20299e+00, 5.72401e+00, 5.46350e+00, 7.77208e-05, 1.49169e-04
5.72401e+00, 6.29714e+00, 6.01058e+00, 3.11649e-05, 5.43769e-05
6.29714e+00, 6.92758e+00, 6.61236e+00, 1.12929e-05, 1.79128e-05
6.92758e+00, 7.62106e+00, 7.27432e+00, 3.66029e-06, 5.27812e-06
7.62106e+00, 8.38390e+00, 8.00248e+00, 1.04956e-06, 1.37587e-06
8.38390e+00, 9.22301e+00, 8.80345e+00, 2.63167e-07, 3.13624e-07
9.22301e+00, 1.01460e+01, 9.68453e+00, 5.69459e-08, 6.16947e-08
1.01460e+01, 1.11614e+01, 1.06537e+01, 1.04847e-08, 1.03264e-08
1.11614e+01, 1.22782e+01, 1.17198e+01, 1.61758e-09, 1.44832e-09
1.22782e+01, 1.35068e+01, 1.28925e+01, 2.05626e-10, 1.67373e-10
1.35068e+01, 1.48582e+01, 1.41825e+01, 2.11565e-11, 1.56552e-11
1.48582e+01, 1.63447e+01, 1.56015e+01, 1.72704e-12, 1.16178e-12
1.63447e+01, 1.79799e+01, 1.71623e+01, 1.09519e-13, 6.69760e-14
1.79799e+01, 1.97786e+01, 1.88793e+01, 5.27208e-15, 2.93102e-15
1.97786e+01, 2.17572e+01, 2.07679e+01, 1.87902e-16, 9.49678e-17
2.17572e+01, 2.39337e+01, 2.28455e+01, 4.82672e-18, 2.21770e-18
2.39337e+01, 2.63278e+01, 2.51307e+01, 8.67993e-20, 3.62556e-20
2.63278e+01, 2.89613e+01, 2.76445e+01, 1.05913e-21, 4.02174e-22
2.89613e+01, 3.18581e+01, 3.04097e+01, 8.48008e-24, 2.92734e-24
3.18581e+01, 3.50447e+01, 3.34514e+01, 4.29886e-26, 1.34907e-26
3.50447e+01, 3.85499e+01, 3.67973e+01, 1.32835e-28, 3.78965e-29
3.85499e+01, 4.24056e+01, 4.04777e+01, 2.40610e-31, 6.24035e-32
4.24056e+01, 4.66469e+01, 4.45262e+01, 2.45181e-34, 5.78082e-35
4.66469e+01, 5.13123e+01, 4.89796e+01, 1.34907e-37, 2.89165e-38
5.13123e+01, 5.64442e+01, 5.38783e+01, 3.84912e-41, 7.50030e-42
5.64442e+01, 6.20894e+01, 5.92668e+01, 5.47837e-45, 9.70456e-46
6.20894e+01, 6.82990e+01, 6.51942e+01, 3.75160e-49, 6.04155e-50
6.82990e+01, 7.51297e+01, 7.17144e+01, 1.19467e-53, 1.74899e-54
7.51297e+01, 8.26434e+01, 7.88865e+01, 1.71004e-58, 2.27590e-59
8.26434e+01, 9.09084e+01, 8.67759e+01, 1.06143e-63, 1.28424e-64
9.09084e+01, 1.00000e+02, 9.54542e+01, 3.77449e-71, 4.15164e-72
