# time = 2.000000000000000e-01# start, end, pivot, particles, density
0.00000e+00, 7.25710e-04, 3.62855e-04, 1.16926e-03, 1.61120e+00
7.25710e-04, 1.52399e-03, 1.12485e-03, 1.28500e-03, 1.60971e+00
1.52399e-03, 2.40210e-03, 1.96305e-03, 1.41191e-03, 1.60790e+00
2.40210e-03, 3.36802e-03, 2.88506e-03, 1.55131e-03, 1.60605e+00
3.36802e-03, 4.43053e-03, 3.89928e-03, 1.70429e-03, 1.60402e+00
4.43053e-03, 5.59929e-03, 5.01491e-03, 1.87191e-03, 1.60162e+00
5.59929e-03, 6.88493e-03, 6.24211e-03, 2.05604e-03, 1.59924e+00
6.88493e-03, 8.29914e-03, 7.59203e-03, 2.25802e-03, 1.59667e+00
8.29914e-03, 9.85476e-03, 9.07695e-03, 2.47856e-03, 1.59329e+00
9.85476e-03, 1.15659e-02, 1.07104e-02, 2.72167e-03, 1.59052e+00
1.15659e-02, 1.34482e-02, 1.25071e-02, 2.98591e-03, 1.58630e+00
1.34482e-02, 1.55188e-02, 1.44835e-02, 3.27718e-03, 1.58277e+00
1.55188e-02, 1.77964e-02, 1.66576e-02, 3.59476e-03, 1.57832e+00
1.77964e-02, 2.03017e-02, 1.90490e-02, 3.94234e-03, 1.57357e+00
2.03017e-02, 2.30576e-02, 2.16797e-02, 4.32220e-03, 1.56835e+00
2.30576e-02, 2.60891e-02, 2.45733e-02, 4.73675e-03, 1.56253e+00
2.60891e-02, 2.94237e-02, 2.77564e-02, 5.19049e-03, 1.55655e+00
2.94237e-02, 3.30918e-02, 3.12577e-02, 5.68164e-03, 1.54894e+00
3.30918e-02, 3.71267e-02, 3.51092e-02, 6.22286e-03, 1.54226e+00
3.71267e-02, 4.15650e-02, 3.93458e-02, 6.80706e-03, 1.53368e+00
4.15650e-02, 4.64472e-02, 4.40061e-02, 7.44416e-03, 1.52475e+00
4.64472e-02, 5.18177e-02, 4.91325e-02, 8.13489e-03, 1.51476e+00
5.18177e-02, 5.77252e-02, 5.47714e-02, 8.88261e-03, 1.50362e+00
5.77252e-02, 6.42234e-02, 6.09743e-02, 9.70217e-03, 1.49305e+00
6.42234e-02, 7.13714e-02, 6.77974e-02, 1.05715e-02, 1.47894e+00
7.13714e-02, 7.92343e-02, 7.53029e-02, 1.15267e-02, 1.46596e+00
7.92343e-02, 8.78834e-02, 8.35588e-02, 1.25415e-02, 1.45003e+00
8.78834e-02, 9.73975e-02, 9.26404e-02, 1.36392e-02, 1.43359e+00
9.73975e-02, 1.07863e-01, 1.02630e-01, 1.48134e-02, 1.41546e+00
1.07863e-01, 1.19375e-01, 1.13619e-01, 1.60798e-02, 1.39679e+00
1.19375e-01, 1.32038e-01, 1.25707e-01, 1.74118e-02, 1.37499e+00
1.32038e-01, 1.45968e-01, 1.39003e-01, 1.88239e-02, 1.35137e+00
1.45968e-01, 1.61290e-01, 1.53629e-01, 2.03518e-02, 1.32823e+00
1.61290e-01, 1.78145e-01, 1.69717e-01, 2.19182e-02, 1.30042e+00
1.78145e-01, 1.96685e-01, 1.87415e-01, 2.35710e-02, 1.27135e+00
1.96685e-01, 2.17079e-01, 2.06882e-01, 2.52993e-02, 1.24051e+00
2.17079e-01, 2.39513e-01, 2.28296e-01, 2.71150e-02, 1.20867e+00
2.39513e-01, 2.64190e-01, 2.51851e-01, 2.89040e-02, 1.17129e+00
2.64190e-01, 2.91335e-01, 2.77762e-01, 3.08039e-02, 1.13480e+00
2.91335e-01, 3.21194e-01, 3.06264e-01, 3.26927e-02, 1.09490e+00
3.21194e-01, 3.54039e-01, 3.37616e-01, 3.45477e-02, 1.05184e+00
3.54039e-01, 3.90168e-01, 3.72104e-01, 3.63746e-02, 1.00678e+00
3.90168e-01, 4.29911e-01, 4.10040e-01, 3.81115e-02, 9.58959e-01
4.29911e-01, 4.73628e-01, 4.51769e-01, 3.98012e-02, 9.10433e-01
4.73628e-01, 5.21716e-01, 4.97672e-01, 4.12879e-02, 8.58582e-01
5.21716e-01, 5.74614e-01, 5.48165e-01, 4.26140e-02, 8.05598e-01
5.74614e-01, 6.32801e-01, 6.03707e-01, 4.36920e-02, 7.50888e-01
6.32801e-01, 6.96806e-01, 6.64804e-01, 4.45231e-02, 6.95610e-01
6.96806e-01, 7.67213e-01, 7.32010e-01, 4.49256e-02, 6.38090e-01
7.67213e-01, 8.44660e-01, 8.05936e-01, 4.49987e-02, 5.81026e-01
8.44660e-01, 9.29852e-01, 8.87256e-01, 4.46676e-02, 5.24319e-01
9.29852e-01, 1.02356e+00, 9.76707e-01, 4.38685e-02, 4.68126e-01
1.02356e+00, 1.12664e+00, 1.07510e+00, 4.25972e-02, 4.13237e-01
1.12664e+00, 1.24003e+00, 1.18334e+00, 4.08482e-02, 3.60244e-01
1.24003e+00, 1.36476e+00, 1.30240e+00, 3.86358e-02, 3.09758e-01
1.36476e+00, 1.50197e+00, 1.43336e+00, 3.59936e-02, 2.62340e-01
1.50197e+00, 1.65289e+00, 1.57743e+00, 3.29992e-02, 2.18651e-01
1.65289e+00, 1.81890e+00, 1.73590e+00, 2.96437e-02, 1.78561e-01
1.81890e+00, 2.00152e+00, 1.91021e+00, 2.61493e-02, 1.43193e-01
2.00152e+00, 2.20240e+00, 2.10196e+00, 2.25438e-02, 1.12227e-01
2.20240e+00, 2.42336e+00, 2.31288e+00, 1.89649e-02, 8.58277e-02
2.42336e+00, 2.66642e+00, 2.54489e+00, 1.55293e-02, 6.38902e-02
2.66642e+00, 2.93379e+00, 2.80011e+00, 1.23434e-02, 4.61662e-02
2.93379e+00, 3.22790e+00, 3.08084e+00, 9.49505e-03, 3.22846e-02
3.22790e+00, 3.55141e+00, 3.38965e+00, 7.04508e-03, 2.17767e-02
3.55141e+00, 3.90728e+00, 3.72934e+00, 5.02351e-03, 1.41163e-02
3.90728e+00, 4.29873e+00, 4.10301e+00, 3.42844e-03, 8.75823e-03
4.29873e+00, 4.72933e+00, 4.51403e+00, 2.22957e-03, 5.17785e-03
4.72933e+00, 5.20299e+00, 4.96616e+00, 1.37475e-03, 2.90241e-03
5.20299e+00, 5.72401e+00, 5.46350e+00, 7.99375e-04, 1.53424e-03
5.72401e+00, 6.29714e+00, 6.01058e+00, 4.35694e-04, 7.60205e-04
6.29714e+00, 6.92758e+00, 6.61236e+00, 2.21135e-04, 3.50763e-04
6.92758e+00, 7.62106e+00, 7.27432e+00, 1.03754e-04, 1.49612e-04
7.62106e+00, 8.38390e+00, 8.00248e+00, 4.46401e-05, 5.85189e-05
8.38390e+00, 9.22301e+00, 8.80345e+00, 1.74585e-05, 2.08058e-05
9.22301e+00, 1.01460e+01, 9.68453e+00, 6.14657e-06, 6.65915e-06
1.01460e+01, 1.11614e+01, 1.06537e+01, 1.92749e-06, 1.89838e-06
1.11614e+01, 1.22782e+01, 1.17198e+01, 5.32160e-07, 4.76477e-07
1.22782e+01, 1.35068e+01, 1.28925e+01, 1.27723e-07, 1.03963e-07
1.35068e+01, 1.48582e+01, 1.41825e+01, 2.62844e-08, 1.94497e-08
1.48582e+01, 1.63447e+01, 1.56015e+01, 4.56877e-09, 3.07342e-09
1.63447e+01, 1.79799e+01, 1.71623e+01, 6.59975e-10, 4.03605e-10
1.79799e+01, 1.97786e+01, 1.88793e+01, 7.78473e-11, 4.32793e-11
1.97786e+01, 2.17572e+01, 2.07679e+01, 7.35676e-12, 3.71818e-12
2.17572e+01, 2.39337e+01, 2.28455e+01, 5.45661e-13, 2.50711e-13
2.39337e+01, 2.63278e+01, 2.51307e+01, 3.10649e-14, 1.29756e-14
2.63278e+01, 2.89613e+01, 2.76445e+01, 1.32503e-15, 5.03144e-16
2.89613e+01, 3.18581e+01, 3.04097e+01, 4.12475e-17, 1.42387e-17
3.18581e+01, 3.50447e+01, 3.34514e+01, 9.10811e-19, 2.85831e-19
3.50447e+01, 3.85499e+01, 3.67973e+01, 1.38339e-20, 3.94668e-21
3.85499e+01, 4.24056e+01, 4.04777e+01, 1.39814e-22, 3.62614e-23
4.24056e+01, 4.66469e+01, 4.45262e+01, 9.07240e-25, 2.13907e-25
4.66469e+01, 5.13123e+01, 4.89796e+01, 3.63817e-27, 7.79818e-28
5.13123e+01, 5.64442e+01, 5.38783e+01, 8.65773e-30, 1.68702e-30
5.64442e+01, 6.20894e+01, 5.92668e+01, 1.17148e-32, 2.07519e-33
6.20894e+01, 6.82990e+01, 6.51942e+01, 8.62229e-36, 1.38853e-36
6.82990e+01, 7.51297e+01, 7.17144e+01, 3.32904e-39, 4.87369e-40
7.51297e+01, 8.26434e+01, 7.88865e+01, 1.29445e-42, 1.72279e-43
8.26434e+01, 9.09084e+01, 8.67759e+01, 0.00000e+00, 0.00000e+00
9.09084e+01, 1.00000e+02, 9.54542e+01, 1.91821e-50, 2.10988e-51
