# time = 2.300000000000000e-01# start, end, pivot, particles, density
0.00000e+00, 7.25710e-04, 3.62855e-04, 1.23510e-03, 1.70191e+00
7.25710e-04, 1.52399e-03, 1.12485e-03, 1.35732e-03, 1.70030e+00
1.52399e-03, 2.40210e-03, 1.96305e-03, 1.49131e-03, 1.69832e+00
2.40210e-03, 3.36802e-03, 2.88506e-03, 1.63850e-03, 1.69631e+00
3.36802e-03, 4.43053e-03, 3.89928e-03, 1.80003e-03, 1.69413e+00
4.43053e-03, 5.59929e-03, 5.01491e-03, 1.97695e-03, 1.69149e+00
5.59929e-03, 6.88493e-03, 6.24211e-03, 2.17134e-03, 1.68892e+00
6.88493e-03, 8.29914e-03, 7.59203e-03, 2.38457e-03, 1.68616e+00
8.29914e-03, 9.85476e-03, 9.07695e-03, 2.61724e-03, 1.68244e+00
9.85476e-03, 1.15659e-02, 1.07104e-02, 2.87393e-03, 1.67950e+00
1.15659e-02, 1.34482e-02, 1.25071e-02, 3.15257e-03, 1.67485e+00
1.34482e-02, 1.55188e-02, 1.44835e-02, 3.46000e-03, 1.67107e+00
1.55188e-02, 1.77964e-02, 1.66576e-02, 3.79498e-03, 1.66623e+00
1.77964e-02, 2.03017e-02, 1.90490e-02, 4.16158e-03, 1.66108e+00
2.03017e-02, 2.30576e-02, 2.16797e-02, 4.56214e-03, 1.65542e+00
2.30576e-02, 2.60891e-02, 2.45733e-02, 4.99916e-03, 1.64909e+00
2.60891e-02, 2.94237e-02, 2.77564e-02, 5.47759e-03, 1.64265e+00
2.94237e-02, 3.30918e-02, 3.12577e-02, 5.99473e-03, 1.63430e+00
3.30918e-02, 3.71267e-02, 3.51092e-02, 6.56546e-03, 1.62717e+00
3.71267e-02, 4.15650e-02, 3.93458e-02, 7.18052e-03, 1.61783e+00
4.15650e-02, 4.64472e-02, 4.40061e-02, 7.85135e-03, 1.60815e+00
4.64472e-02, 5.18177e-02, 4.91325e-02, 8.57821e-03, 1.59730e+00
5.18177e-02, 5.77252e-02, 5.47714e-02, 9.36447e-03, 1.58519e+00
5.77252e-02, 6.42234e-02, 6.09743e-02, 1.02275e-02, 1.57390e+00
6.42234e-02, 7.13714e-02, 6.77974e-02, 1.11398e-02, 1.55844e+00
7.13714e-02, 7.92343e-02, 7.53029e-02, 1.21444e-02, 1.54453e+00
7.92343e-02, 8.78834e-02, 8.35588e-02, 1.32088e-02, 1.52718e+00
8.78834e-02, 9.73975e-02, 9.26404e-02, 1.43606e-02, 1.50941e+00
9.73975e-02, 1.07863e-01, 1.02630e-01, 1.55912e-02, 1.48978e+00
1.07863e-01, 1.19375e-01, 1.13619e-01, 1.69192e-02, 1.46970e+00
1.19375e-01, 1.32038e-01, 1.25707e-01, 1.83118e-02, 1.44606e+00
1.32038e-01, 1.45968e-01, 1.39003e-01, 1.97861e-02, 1.42044e+00
1.45968e-01, 1.61290e-01, 1.53629e-01, 2.13852e-02, 1.39568e+00
1.61290e-01, 1.78145e-01, 1.69717e-01, 2.30153e-02, 1.36551e+00
1.78145e-01, 1.96685e-01, 1.87415e-01, 2.47348e-02, 1.33412e+00
1.96685e-01, 2.17079e-01, 2.06882e-01, 2.65307e-02, 1.30089e+00
2.17079e-01, 2.39513e-01, 2.28296e-01, 2.84181e-02, 1.26676e+00
2.39513e-01, 2.64190e-01, 2.51851e-01, 3.02608e-02, 1.22627e+00
2.64190e-01, 2.91335e-01, 2.77762e-01, 3.22262e-02, 1.18720e+00
2.91335e-01, 3.21194e-01, 3.06264e-01, 3.41694e-02, 1.14435e+00
3.21194e-01, 3.54039e-01, 3.37616e-01, 3.60661e-02, 1.09807e+00
3.54039e-01, 3.90168e-01, 3.72104e-01, 3.79268e-02, 1.04974e+00
3.90168e-01, 4.29911e-01, 4.10040e-01, 3.96811e-02, 9.98455e-01
4.29911e-01, 4.73628e-01, 4.51769e-01, 4.13855e-02, 9.46673e-01
4.73628e-01, 5.21716e-01, 4.97672e-01, 4.28589e-02, 8.91251e-01
5.21716e-01, 5.74614e-01, 5.48165e-01, 4.41588e-02, 8.34801e-01
5.74614e-01, 6.32801e-01, 6.03707e-01, 4.51876e-02, 7.76592e-01
6.32801e-01, 6.96806e-01, 6.64804e-01, 4.59545e-02, 7.17974e-01
6.96806e-01, 7.67213e-01, 7.32010e-01, 4.62524e-02, 6.56934e-01
7.67213e-01, 8.44660e-01, 8.05936e-01, 4.62073e-02, 5.96631e-01
8.44660e-01, 9.29852e-01, 8.87256e-01, 4.57384e-02, 5.36888e-01
9.29852e-01, 1.02356e+00, 9.76707e-01, 4.47788e-02, 4.77840e-01
1.02356e+00, 1.12664e+00, 1.07510e+00, 4.33306e-02, 4.20351e-01
1.12664e+00, 1.24003e+00, 1.18334e+00, 4.13928e-02, 3.65048e-01
1.24003e+00, 1.36476e+00, 1.30240e+00, 3.89865e-02, 3.12570e-01
1.36476e+00, 1.50197e+00, 1.43336e+00, 3.61522e-02, 2.63496e-01
1.50197e+00, 1.65289e+00, 1.57743e+00, 3.29786e-02, 2.18514e-01
1.65289e+00, 1.81890e+00, 1.73590e+00, 2.94535e-02, 1.77415e-01
1.81890e+00, 2.00152e+00, 1.91021e+00, 2.58231e-02, 1.41407e-01
2.00152e+00, 2.20240e+00, 2.10196e+00, 2.21109e-02, 1.10072e-01
2.20240e+00, 2.42336e+00, 2.31288e+00, 1.84610e-02, 8.35470e-02
2.42336e+00, 2.66642e+00, 2.54489e+00, 1.49914e-02, 6.16773e-02
2.66642e+00, 2.93379e+00, 2.80011e+00, 1.18070e-02, 4.41602e-02
2.93379e+00, 3.22790e+00, 3.08084e+00, 8.99102e-03, 3.05708e-02
3.22790e+00, 3.55141e+00, 3.38965e+00, 6.59702e-03, 2.03917e-02
3.55141e+00, 3.90728e+00, 3.72934e+00, 4.64640e-03, 1.30566e-02
3.90728e+00, 4.29873e+00, 4.10301e+00, 3.12823e-03, 7.99132e-03
4.29873e+00, 4.72933e+00, 4.51403e+00, 2.00404e-03, 4.65407e-03
4.72933e+00, 5.20299e+00, 4.96616e+00, 1.21538e-03, 2.56593e-03
5.20299e+00, 5.72401e+00, 5.46350e+00, 6.93901e-04, 1.33180e-03
5.72401e+00, 6.29714e+00, 6.01058e+00, 3.70652e-04, 6.46719e-04
6.29714e+00, 6.92758e+00, 6.61236e+00, 1.83985e-04, 2.91836e-04
6.92758e+00, 7.62106e+00, 7.27432e+00, 8.42327e-05, 1.21463e-04
7.62106e+00, 8.38390e+00, 8.00248e+00, 3.52758e-05, 4.62432e-05
8.38390e+00, 9.22301e+00, 8.80345e+00, 1.33925e-05, 1.59603e-05
9.22301e+00, 1.01460e+01, 9.68453e+00, 4.56375e-06, 4.94433e-06
1.01460e+01, 1.11614e+01, 1.06537e+01, 1.38083e-06, 1.35998e-06
1.11614e+01, 1.22782e+01, 1.17198e+01, 3.66590e-07, 3.28232e-07
1.22782e+01, 1.35068e+01, 1.28925e+01, 8.42984e-08, 6.86162e-08
1.35068e+01, 1.48582e+01, 1.41825e+01, 1.65569e-08, 1.22516e-08
1.48582e+01, 1.63447e+01, 1.56015e+01, 2.73540e-09, 1.84010e-09
1.63447e+01, 1.79799e+01, 1.71623e+01, 3.73919e-10, 2.28669e-10
1.79799e+01, 1.97786e+01, 1.88793e+01, 4.15409e-11, 2.30947e-11
1.97786e+01, 2.17572e+01, 2.07679e+01, 3.67871e-12, 1.85926e-12
2.17572e+01, 2.39337e+01, 2.28455e+01, 2.54281e-13, 1.16833e-13
2.39337e+01, 2.63278e+01, 2.51307e+01, 1.34101e-14, 5.60133e-15
2.63278e+01, 2.89613e+01, 2.76445e+01, 5.26401e-16, 1.99886e-16
2.89613e+01, 3.18581e+01, 3.04097e+01, 1.49736e-17, 5.16891e-18
3.18581e+01, 3.50447e+01, 3.34514e+01, 2.99818e-19, 9.40890e-20
3.50447e+01, 3.85499e+01, 3.67973e+01, 4.09532e-21, 1.16836e-21
3.85499e+01, 4.24056e+01, 4.04777e+01, 3.68957e-23, 9.56910e-24
4.24056e+01, 4.66469e+01, 4.45262e+01, 2.11421e-25, 4.98483e-26
4.66469e+01, 5.13123e+01, 4.89796e+01, 7.41314e-28, 1.58896e-28
5.13123e+01, 5.64442e+01, 5.38783e+01, 1.52661e-30, 2.97471e-31
5.64442e+01, 6.20894e+01, 5.92668e+01, 1.76874e-33, 3.13321e-34
6.20894e+01, 6.82990e+01, 6.51942e+01, 1.10300e-36, 1.77626e-37
6.82990e+01, 7.51297e+01, 7.17144e+01, 3.53024e-40, 5.16826e-41
7.51297e+01, 8.26434e+01, 7.88865e+01, 0.00000e+00, 0.00000e+00
8.26434e+01, 9.09084e+01, 8.67759e+01, 1.63127e-47, 1.97370e-48
9.09084e+01, 1.00000e+02, 9.54542e+01, 0.00000e+00, 0.00000e+00
