# time = 5.000000000000000e-01# start, end, pivot, particles, density
0.00000e+00, 7.25710e-04, 3.62855e-04, 1.77517e-03, 2.44612e+00
7.25710e-04, 1.52399e-03, 1.12485e-03, 1.95064e-03, 2.44355e+00
1.52399e-03, 2.40210e-03, 1.96305e-03, 2.14233e-03, 2.43970e+00
2.40210e-03, 3.36802e-03, 2.88506e-03, 2.35328e-03, 2.43631e+00
3.36802e-03, 4.43053e-03, 3.89928e-03, 2.58469e-03, 2.43262e+00
4.43053e-03, 5.59929e-03, 5.01491e-03, 2.83767e-03, 2.42793e+00
5.59929e-03, 6.88493e-03, 6.24211e-03, 3.11594e-03, 2.42365e+00
6.88493e-03, 8.29914e-03, 7.59203e-03, 3.42121e-03, 2.41918e+00
8.29914e-03, 9.85476e-03, 9.07695e-03, 3.75225e-03, 2.41206e+00
9.85476e-03, 1.15659e-02, 1.07104e-02, 4.12053e-03, 2.40800e+00
1.15659e-02, 1.34482e-02, 1.25071e-02, 4.51535e-03, 2.39884e+00
1.34482e-02, 1.55188e-02, 1.44835e-02, 4.95514e-03, 2.39317e+00
1.55188e-02, 1.77964e-02, 1.66576e-02, 5.43138e-03, 2.38471e+00
1.77964e-02, 2.03017e-02, 1.90490e-02, 5.95216e-03, 2.37578e+00
2.03017e-02, 2.30576e-02, 2.16797e-02, 6.52101e-03, 2.36621e+00
2.30576e-02, 2.60891e-02, 2.45733e-02, 7.13956e-03, 2.35515e+00
2.60891e-02, 2.94237e-02, 2.77564e-02, 7.81865e-03, 2.34469e+00
2.94237e-02, 3.30918e-02, 3.12577e-02, 8.54304e-03, 2.32902e+00
3.30918e-02, 3.71267e-02, 3.51092e-02, 9.35588e-03, 2.31875e+00
3.71267e-02, 4.15650e-02, 3.93458e-02, 1.02145e-02, 2.30140e+00
4.15650e-02, 4.64472e-02, 4.40061e-02, 1.11594e-02, 2.28573e+00
4.64472e-02, 5.18177e-02, 4.91325e-02, 1.21736e-02, 2.26678e+00
5.18177e-02, 5.77252e-02, 5.47714e-02, 1.32652e-02, 2.24550e+00
5.77252e-02, 6.42234e-02, 6.09743e-02, 1.44815e-02, 2.22853e+00
6.42234e-02, 7.13714e-02, 6.77974e-02, 1.57252e-02, 2.19994e+00
7.13714e-02, 7.92343e-02, 7.53029e-02, 1.71274e-02, 2.17827e+00
7.92343e-02, 8.78834e-02, 8.35588e-02, 1.85754e-02, 2.14766e+00
8.78834e-02, 9.73975e-02, 9.26404e-02, 2.01503e-02, 2.11795e+00
9.73975e-02, 1.07863e-01, 1.02630e-01, 2.18185e-02, 2.08481e+00
1.07863e-01, 1.19375e-01, 1.13619e-01, 2.36296e-02, 2.05261e+00
1.19375e-01, 1.32038e-01, 1.25707e-01, 2.54785e-02, 2.01201e+00
1.32038e-01, 1.45968e-01, 1.39003e-01, 2.74160e-02, 1.96820e+00
1.45968e-01, 1.61290e-01, 1.53629e-01, 2.95724e-02, 1.93000e+00
1.61290e-01, 1.78145e-01, 1.69717e-01, 3.16569e-02, 1.87822e+00
1.78145e-01, 1.96685e-01, 1.87415e-01, 3.38557e-02, 1.82607e+00
1.96685e-01, 2.17079e-01, 2.06882e-01, 3.61362e-02, 1.77188e+00
2.17079e-01, 2.39513e-01, 2.28296e-01, 3.85529e-02, 1.71853e+00
2.39513e-01, 2.64190e-01, 2.51851e-01, 4.07090e-02, 1.64968e+00
2.64190e-01, 2.91335e-01, 2.77762e-01, 4.31334e-02, 1.58902e+00
2.91335e-01, 3.21194e-01, 3.06264e-01, 4.54142e-02, 1.52095e+00
3.21194e-01, 3.54039e-01, 3.37616e-01, 4.75168e-02, 1.44669e+00
3.54039e-01, 3.90168e-01, 3.72104e-01, 4.95144e-02, 1.37047e+00
3.90168e-01, 4.29911e-01, 4.10040e-01, 5.12524e-02, 1.28961e+00
4.29911e-01, 4.73628e-01, 4.51769e-01, 5.29450e-02, 1.21109e+00
4.73628e-01, 5.21716e-01, 4.97672e-01, 5.41421e-02, 1.12588e+00
5.21716e-01, 5.74614e-01, 5.48165e-01, 5.50772e-02, 1.04121e+00
5.74614e-01, 6.32801e-01, 6.03707e-01, 5.55543e-02, 9.54753e-01
6.32801e-01, 6.96806e-01, 6.64804e-01, 5.56724e-02, 8.69803e-01
6.96806e-01, 7.67213e-01, 7.32010e-01, 5.49776e-02, 7.80861e-01
7.67213e-01, 8.44660e-01, 8.05936e-01, 5.38802e-02, 6.95705e-01
8.44660e-01, 9.29852e-01, 8.87256e-01, 5.22418e-02, 6.13226e-01
9.29852e-01, 1.02356e+00, 9.76707e-01, 4.99701e-02, 5.33237e-01
1.02356e+00, 1.12664e+00, 1.07510e+00, 4.71341e-02, 4.57249e-01
1.12664e+00, 1.24003e+00, 1.18334e+00, 4.37742e-02, 3.86049e-01
1.24003e+00, 1.36476e+00, 1.30240e+00, 3.99718e-02, 3.20469e-01
1.36476e+00, 1.50197e+00, 1.43336e+00, 3.58215e-02, 2.61086e-01
1.50197e+00, 1.65289e+00, 1.57743e+00, 3.14921e-02, 2.08664e-01
1.65289e+00, 1.81890e+00, 1.73590e+00, 2.69462e-02, 1.62312e-01
1.81890e+00, 2.00152e+00, 1.91021e+00, 2.25893e-02, 1.23699e-01
2.00152e+00, 2.20240e+00, 2.10196e+00, 1.83949e-02, 9.15725e-02
2.20240e+00, 2.42336e+00, 2.31288e+00, 1.45322e-02, 6.57668e-02
2.42336e+00, 2.66642e+00, 2.54489e+00, 1.11036e-02, 4.56821e-02
2.66642e+00, 2.93379e+00, 2.80011e+00, 8.17716e-03, 3.05839e-02
2.93379e+00, 3.22790e+00, 3.08084e+00, 5.78329e-03, 1.96641e-02
3.22790e+00, 3.55141e+00, 3.38965e+00, 3.91150e-03, 1.20906e-02
3.55141e+00, 3.90728e+00, 3.72934e+00, 2.51856e-03, 7.07727e-03
3.90728e+00, 4.29873e+00, 4.10301e+00, 1.53611e-03, 3.92411e-03
4.29873e+00, 4.72933e+00, 4.51403e+00, 8.82688e-04, 2.04991e-03
4.72933e+00, 5.20299e+00, 4.96616e+00, 4.74911e-04, 1.00264e-03
5.20299e+00, 5.72401e+00, 5.46350e+00, 2.37688e-04, 4.56193e-04
5.72401e+00, 6.29714e+00, 6.01058e+00, 1.09843e-04, 1.91656e-04
6.29714e+00, 6.92758e+00, 6.61236e+00, 4.65056e-05, 7.37669e-05
6.92758e+00, 7.62106e+00, 7.27432e+00, 1.78794e-05, 2.57820e-05
7.62106e+00, 8.38390e+00, 8.00248e+00, 6.18206e-06, 8.10409e-06
8.38390e+00, 9.22301e+00, 8.80345e+00, 1.90268e-06, 2.26748e-06
9.22301e+00, 1.01460e+01, 9.68453e+00, 5.15284e-07, 5.58255e-07
1.01460e+01, 1.11614e+01, 1.06537e+01, 1.21274e-07, 1.19443e-07
1.11614e+01, 1.22782e+01, 1.17198e+01, 2.44712e-08, 2.19107e-08
1.22782e+01, 1.35068e+01, 1.28925e+01, 4.17125e-09, 3.39526e-09
1.35068e+01, 1.48582e+01, 1.41825e+01, 5.91145e-10, 4.37431e-10
1.48582e+01, 1.63447e+01, 1.56015e+01, 6.84405e-11, 4.60400e-11
1.63447e+01, 1.79799e+01, 1.71623e+01, 6.35251e-12, 3.88485e-12
1.79799e+01, 1.97786e+01, 1.88793e+01, 4.63106e-13, 2.57464e-13
1.97786e+01, 2.17572e+01, 2.07679e+01, 2.59334e-14, 1.31070e-14
2.17572e+01, 2.39337e+01, 2.28455e+01, 1.08901e-15, 5.00360e-16
2.39337e+01, 2.63278e+01, 2.51307e+01, 3.34107e-17, 1.39555e-17
2.63278e+01, 2.89613e+01, 2.76445e+01, 7.28109e-19, 2.76479e-19
2.89613e+01, 3.18581e+01, 3.04097e+01, 1.09340e-20, 3.77444e-21
3.18581e+01, 3.50447e+01, 3.34514e+01, 1.09507e-22, 3.43656e-23
3.50447e+01, 3.85499e+01, 3.67973e+01, 7.06229e-25, 2.01481e-25
3.85499e+01, 4.24056e+01, 4.04777e+01, 2.82609e-27, 7.32962e-28
4.24056e+01, 4.66469e+01, 4.45262e+01, 6.74476e-30, 1.59026e-30
4.66469e+01, 5.13123e+01, 4.89796e+01, 9.21418e-33, 1.97500e-33
5.13123e+01, 5.64442e+01, 5.38783e+01, 6.90704e-36, 1.34589e-36
5.64442e+01, 6.20894e+01, 5.92668e+01, 2.72279e-39, 4.82324e-40
6.20894e+01, 6.82990e+01, 6.51942e+01, 5.41471e-43, 8.71981e-44
6.82990e+01, 7.51297e+01, 7.17144e+01, 5.22152e-47, 7.64427e-48
7.51297e+01, 8.26434e+01, 7.88865e+01, 2.41344e-51, 3.21206e-52
8.26434e+01, 9.09084e+01, 8.67759e+01, 0.00000e+00, 0.00000e+00
9.09084e+01, 1.00000e+02, 9.54542e+01, 1.97345e-60, 2.17064e-61
