# time = 6.400000000000000e-01# start, end, pivot, particles, density
0.00000e+00, 7.25710e-04, 3.62855e-04, 7.25447e-04, 9.99637e-01
7.25710e-04, 1.52399e-03, 1.12485e-03, 2.15749e-03, 2.70267e+00
1.52399e-03, 2.40210e-03, 1.96305e-03, 2.36960e-03, 2.69852e+00
2.40210e-03, 3.36802e-03, 2.88506e-03, 2.60222e-03, 2.69403e+00
3.36802e-03, 4.43053e-03, 3.89928e-03, 2.85740e-03, 2.68928e+00
4.43053e-03, 5.59929e-03, 5.01491e-03, 3.13701e-03, 2.68404e+00
5.59929e-03, 6.88493e-03, 6.24211e-03, 3.44287e-03, 2.67795e+00
6.88493e-03, 8.29914e-03, 7.59203e-03, 3.77800e-03, 2.67147e+00
8.29914e-03, 9.85476e-03, 9.07695e-03, 4.14534e-03, 2.66474e+00
9.85476e-03, 1.15659e-02, 1.07104e-02, 4.54574e-03, 2.65649e+00
1.15659e-02, 1.34482e-02, 1.25071e-02, 4.98516e-03, 2.64843e+00
1.34482e-02, 1.55188e-02, 1.44835e-02, 5.46378e-03, 2.63883e+00
1.55188e-02, 1.77964e-02, 1.66576e-02, 5.98774e-03, 2.62898e+00
1.77964e-02, 2.03017e-02, 1.90490e-02, 6.55678e-03, 2.61711e+00
2.03017e-02, 2.30576e-02, 2.16797e-02, 7.18083e-03, 2.60564e+00
2.30576e-02, 2.60891e-02, 2.45733e-02, 7.85669e-03, 2.59171e+00
2.60891e-02, 2.94237e-02, 2.77564e-02, 8.59364e-03, 2.57710e+00
2.94237e-02, 3.30918e-02, 3.12577e-02, 9.39478e-03, 2.56123e+00
3.30918e-02, 3.71267e-02, 3.51092e-02, 1.02635e-02, 2.54368e+00
3.71267e-02, 4.15650e-02, 3.93458e-02, 1.12029e-02, 2.52410e+00
4.15650e-02, 4.64472e-02, 4.40061e-02, 1.22237e-02, 2.50372e+00
4.64472e-02, 5.18177e-02, 4.91325e-02, 1.33232e-02, 2.48085e+00
5.18177e-02, 5.77252e-02, 5.47714e-02, 1.45068e-02, 2.45566e+00
5.77252e-02, 6.42234e-02, 6.09743e-02, 1.57843e-02, 2.42902e+00
6.42234e-02, 7.13714e-02, 6.77974e-02, 1.71495e-02, 2.39919e+00
7.13714e-02, 7.92343e-02, 7.53029e-02, 1.86171e-02, 2.36773e+00
7.92343e-02, 8.78834e-02, 8.35588e-02, 2.01762e-02, 2.33274e+00
8.78834e-02, 9.73975e-02, 9.26404e-02, 2.18400e-02, 2.29555e+00
9.73975e-02, 1.07863e-01, 1.02630e-01, 2.36001e-02, 2.25504e+00
1.07863e-01, 1.19375e-01, 1.13619e-01, 2.54518e-02, 2.21089e+00
1.19375e-01, 1.32038e-01, 1.25707e-01, 2.73986e-02, 2.16364e+00
1.32038e-01, 1.45968e-01, 1.39003e-01, 2.94300e-02, 2.11278e+00
1.45968e-01, 1.61290e-01, 1.53629e-01, 3.15459e-02, 2.05880e+00
1.61290e-01, 1.78145e-01, 1.69717e-01, 3.37161e-02, 2.00039e+00
1.78145e-01, 1.96685e-01, 1.87415e-01, 3.59293e-02, 1.93792e+00
1.96685e-01, 2.17079e-01, 2.06882e-01, 3.81765e-02, 1.87193e+00
2.17079e-01, 2.39513e-01, 2.28296e-01, 4.04212e-02, 1.80181e+00
2.39513e-01, 2.64190e-01, 2.51851e-01, 4.26262e-02, 1.72737e+00
2.64190e-01, 2.91335e-01, 2.77762e-01, 4.47708e-02, 1.64934e+00
2.91335e-01, 3.21194e-01, 3.06264e-01, 4.68016e-02, 1.56741e+00
3.21194e-01, 3.54039e-01, 3.37616e-01, 4.86775e-02, 1.48203e+00
3.54039e-01, 3.90168e-01, 3.72104e-01, 5.03436e-02, 1.39342e+00
3.90168e-01, 4.29911e-01, 4.10040e-01, 5.17475e-02, 1.30207e+00
4.29911e-01, 4.73628e-01, 4.51769e-01, 5.28318e-02, 1.20850e+00
4.73628e-01, 5.21716e-01, 4.97672e-01, 5.35398e-02, 1.11336e+00
5.21716e-01, 5.74614e-01, 5.48165e-01, 5.38068e-02, 1.01719e+00
5.74614e-01, 6.32801e-01, 6.03707e-01, 5.35916e-02, 9.21022e-01
6.32801e-01, 6.96806e-01, 6.64804e-01, 5.28507e-02, 8.25717e-01
6.96806e-01, 7.67213e-01, 7.32010e-01, 5.15499e-02, 7.32177e-01
7.67213e-01, 8.44660e-01, 8.05936e-01, 4.96803e-02, 6.41474e-01
8.44660e-01, 9.29852e-01, 8.87256e-01, 4.72488e-02, 5.54617e-01
9.29852e-01, 1.02356e+00, 9.76707e-01, 4.42864e-02, 4.72586e-01
1.02356e+00, 1.12664e+00, 1.07510e+00, 4.08529e-02, 3.96315e-01
1.12664e+00, 1.24003e+00, 1.18334e+00, 3.70241e-02, 3.26520e-01
1.24003e+00, 1.36476e+00, 1.30240e+00, 3.29077e-02, 2.63833e-01
1.36476e+00, 1.50197e+00, 1.43336e+00, 2.86341e-02, 2.08700e-01
1.50197e+00, 1.65289e+00, 1.57743e+00, 2.43384e-02, 1.61264e-01
1.65289e+00, 1.81890e+00, 1.73590e+00, 2.01610e-02, 1.21441e-01
1.81890e+00, 2.00152e+00, 1.91021e+00, 1.62343e-02, 8.88988e-02
2.00152e+00, 2.20240e+00, 2.10196e+00, 1.26721e-02, 6.30837e-02
2.20240e+00, 2.42336e+00, 2.31288e+00, 9.55921e-03, 4.32611e-02
2.42336e+00, 2.66642e+00, 2.54489e+00, 6.94545e-03, 2.85748e-02
2.66642e+00, 2.93379e+00, 2.80011e+00, 4.84275e-03, 1.81127e-02
2.93379e+00, 3.22790e+00, 3.08084e+00, 3.22744e-03, 1.09738e-02
3.22790e+00, 3.55141e+00, 3.38965e+00, 2.04691e-03, 6.32710e-03
3.55141e+00, 3.90728e+00, 3.72934e+00, 1.22955e-03, 3.45510e-03
3.90728e+00, 4.29873e+00, 4.10301e+00, 6.95906e-04, 1.77775e-03
4.29873e+00, 4.72933e+00, 4.51403e+00, 3.69018e-04, 8.56989e-04
4.72933e+00, 5.20299e+00, 4.96616e+00, 1.82203e-04, 3.84671e-04
5.20299e+00, 5.72401e+00, 5.46350e+00, 8.32187e-05, 1.59721e-04
5.72401e+00, 6.29714e+00, 6.01058e+00, 3.49048e-05, 6.09023e-05
6.29714e+00, 6.92758e+00, 6.61236e+00, 1.33400e-05, 2.11598e-05
6.92758e+00, 7.62106e+00, 7.27432e+00, 4.60623e-06, 6.64215e-06
7.62106e+00, 8.38390e+00, 8.00248e+00, 1.42390e-06, 1.86660e-06
8.38390e+00, 9.22301e+00, 8.80345e+00, 3.90183e-07, 4.64993e-07
9.22301e+00, 1.01460e+01, 9.68453e+00, 9.37757e-08, 1.01596e-07
1.01460e+01, 1.11614e+01, 1.06537e+01, 1.95425e-08, 1.92474e-08
1.11614e+01, 1.22782e+01, 1.17198e+01, 3.48828e-09, 3.12329e-09
1.22782e+01, 1.35068e+01, 1.28925e+01, 5.26367e-10, 4.28446e-10
1.35068e+01, 1.48582e+01, 1.41825e+01, 6.62122e-11, 4.89952e-11
1.48582e+01, 1.63447e+01, 1.56015e+01, 6.84089e-12, 4.60188e-12
1.63447e+01, 1.79799e+01, 1.71623e+01, 5.71480e-13, 3.49487e-13
1.79799e+01, 1.97786e+01, 1.88793e+01, 3.79715e-14, 2.11103e-14
1.97786e+01, 2.17572e+01, 2.07679e+01, 1.97269e-15, 9.97020e-16
2.17572e+01, 2.39337e+01, 2.28455e+01, 7.87418e-17, 3.61790e-17
2.39337e+01, 2.63278e+01, 2.51307e+01, 2.37285e-18, 9.91128e-19
2.63278e+01, 2.89613e+01, 2.76445e+01, 5.30721e-20, 2.01527e-20
2.89613e+01, 3.18581e+01, 3.04097e+01, 8.67397e-22, 2.99427e-22
3.18581e+01, 3.50447e+01, 3.34514e+01, 1.02264e-23, 3.20925e-24
3.50447e+01, 3.85499e+01, 3.67973e+01, 8.62378e-26, 2.46029e-26
3.85499e+01, 4.24056e+01, 4.04777e+01, 5.19110e-28, 1.34634e-28
4.24056e+01, 4.66469e+01, 4.45262e+01, 2.24443e-30, 5.29187e-31
4.66469e+01, 5.13123e+01, 4.89796e+01, 7.07590e-33, 1.51667e-33
5.13123e+01, 5.64442e+01, 5.38783e+01, 1.82966e-35, 3.56523e-36
5.64442e+01, 6.20894e+01, 5.92668e+01, 4.05297e-38, 7.17957e-39
6.20894e+01, 6.82990e+01, 6.51942e+01, 7.90274e-41, 1.27265e-41
6.82990e+01, 7.51297e+01, 7.17144e+01, 1.38313e-43, 2.02490e-44
7.51297e+01, 8.26434e+01, 7.88865e+01, 8.57680e-45, 1.14149e-45
8.26434e+01, 9.09084e+01, 8.67759e+01, 7.10301e-45, 8.59402e-46
9.09084e+01, 1.00000e+02, 9.54542e+01, 3.71966e-44, 4.09133e-45
