# time = 1.000000000000000e+01# start, end, pivot, particles, density
0.00000e+00, 7.25710e-05, 3.62855e-05, 1.40563e-03, 1.93691e+01
7.25710e-05, 1.52399e-04, 1.12485e-04, 1.54619e-03, 1.93690e+01
1.52399e-04, 2.40210e-04, 1.96305e-04, 1.70081e-03, 1.93690e+01
2.40210e-04, 3.36802e-04, 2.88506e-04, 1.87089e-03, 1.93690e+01
3.36802e-04, 4.43053e-04, 3.89928e-04, 2.05798e-03, 1.93690e+01
4.43053e-04, 5.59929e-04, 5.01491e-04, 2.26378e-03, 1.93690e+01
5.59929e-04, 6.88493e-04, 6.24211e-04, 2.49015e-03, 1.93690e+01
6.88493e-04, 8.29914e-04, 7.59203e-04, 2.73916e-03, 1.93690e+01
8.29914e-04, 9.85476e-04, 9.07695e-04, 3.01307e-03, 1.93689e+01
9.85476e-04, 1.15659e-03, 1.07104e-03, 3.31437e-03, 1.93689e+01
1.15659e-03, 1.34482e-03, 1.25071e-03, 3.64579e-03, 1.93688e+01
1.34482e-03, 1.55188e-03, 1.44835e-03, 4.01035e-03, 1.93687e+01
1.55188e-03, 1.77964e-03, 1.66576e-03, 4.41136e-03, 1.93686e+01
1.77964e-03, 2.03017e-03, 1.90490e-03, 4.85246e-03, 1.93684e+01
2.03017e-03, 2.30576e-03, 2.16797e-03, 5.33766e-03, 1.93682e+01
2.30576e-03, 2.60891e-03, 2.45733e-03, 5.87135e-03, 1.93680e+01
2.60891e-03, 2.94237e-03, 2.77564e-03, 6.45839e-03, 1.93677e+01
2.94237e-03, 3.30918e-03, 3.12577e-03, 7.10410e-03, 1.93674e+01
3.30918e-03, 3.71267e-03, 3.51092e-03, 7.81433e-03, 1.93669e+01
3.71267e-03, 4.15650e-03, 3.93458e-03, 8.59552e-03, 1.93664e+01
4.15650e-03, 4.64472e-03, 4.40061e-03, 9.45474e-03, 1.93657e+01
4.64472e-03, 5.18177e-03, 4.91325e-03, 1.03998e-02, 1.93649e+01
5.18177e-03, 5.77252e-03, 5.47714e-03, 1.14391e-02, 1.93638e+01
5.77252e-03, 6.42234e-03, 6.09743e-03, 1.25822e-02, 1.93626e+01
6.42234e-03, 7.13714e-03, 6.77974e-03, 1.38394e-02, 1.93611e+01
7.13714e-03, 7.92343e-03, 7.53029e-03, 1.52219e-02, 1.93592e+01
7.92343e-03, 8.78834e-03, 8.35588e-03, 1.67421e-02, 1.93569e+01
8.78834e-03, 9.73975e-03, 9.26404e-03, 1.84136e-02, 1.93541e+01
9.73975e-03, 1.07863e-02, 1.02630e-02, 2.02515e-02, 1.93508e+01
1.07863e-02, 1.19375e-02, 1.13619e-02, 2.22718e-02, 1.93466e+01
1.19375e-02, 1.32038e-02, 1.25707e-02, 2.44927e-02, 1.93416e+01
1.32038e-02, 1.45968e-02, 1.39003e-02, 2.69334e-02, 1.93355e+01
1.45968e-02, 1.61290e-02, 1.53629e-02, 2.96154e-02, 1.93281e+01
1.61290e-02, 1.78145e-02, 1.69717e-02, 3.25617e-02, 1.93191e+01
1.78145e-02, 1.96685e-02, 1.87415e-02, 3.57976e-02, 1.93081e+01
1.96685e-02, 2.17079e-02, 2.06882e-02, 3.93502e-02, 1.92948e+01
2.17079e-02, 2.39513e-02, 2.28296e-02, 4.32491e-02, 1.92787e+01
2.39513e-02, 2.64190e-02, 2.51851e-02, 4.75257e-02, 1.92591e+01
2.64190e-02, 2.91335e-02, 2.77762e-02, 5.22139e-02, 1.92354e+01
2.91335e-02, 3.21194e-02, 3.06264e-02, 5.73495e-02, 1.92067e+01
3.21194e-02, 3.54039e-02, 3.37616e-02, 6.29701e-02, 1.91719e+01
3.54039e-02, 3.90168e-02, 3.72104e-02, 6.91150e-02, 1.91297e+01
3.90168e-02, 4.29911e-02, 4.10040e-02, 7.58240e-02, 1.90788e+01
4.29911e-02, 4.73628e-02, 4.51769e-02, 8.31372e-02, 1.90172e+01
4.73628e-02, 5.21716e-02, 4.97672e-02, 9.10932e-02, 1.89428e+01
5.21716e-02, 5.74614e-02, 5.48165e-02, 9.97275e-02, 1.88530e+01
5.74614e-02, 6.32801e-02, 6.03707e-02, 1.09070e-01, 1.87447e+01
6.32801e-02, 6.96806e-02, 6.64804e-02, 1.19142e-01, 1.86143e+01
6.96806e-02, 7.67213e-02, 7.32010e-02, 1.29952e-01, 1.84574e+01
7.67213e-02, 8.44660e-02, 8.05936e-02, 1.41487e-01, 1.82689e+01
8.44660e-02, 9.29852e-02, 8.87256e-02, 1.53711e-01, 1.80429e+01
9.29852e-02, 1.02356e-01, 9.76707e-02, 1.66549e-01, 1.77726e+01
1.02356e-01, 1.12664e-01, 1.07510e-01, 1.79879e-01, 1.74501e+01
1.12664e-01, 1.24003e-01, 1.18334e-01, 1.93518e-01, 1.70665e+01
1.24003e-01, 1.36476e-01, 1.30240e-01, 2.07202e-01, 1.66122e+01
1.36476e-01, 1.50197e-01, 1.43336e-01, 2.20573e-01, 1.60765e+01
1.50197e-01, 1.65289e-01, 1.57743e-01, 2.33152e-01, 1.54485e+01
1.65289e-01, 1.81890e-01, 1.73590e-01, 2.44331e-01, 1.47174e+01
1.81890e-01, 2.00152e-01, 1.91021e-01, 2.53354e-01, 1.38736e+01
2.00152e-01, 2.20240e-01, 2.10196e-01, 2.59328e-01, 1.29098e+01
2.20240e-01, 2.42336e-01, 2.31288e-01, 2.61244e-01, 1.18228e+01
2.42336e-01, 2.66642e-01, 2.54489e-01, 2.58040e-01, 1.06162e+01
2.66642e-01, 2.93379e-01, 2.80011e-01, 2.48725e-01, 9.30272e+00
2.93379e-01, 3.22790e-01, 3.08084e-01, 2.32549e-01, 7.90700e+00
3.22790e-01, 3.55141e-01, 3.38965e-01, 2.09257e-01, 6.46823e+00
3.55141e-01, 3.90728e-01, 3.72934e-01, 1.79380e-01, 5.04065e+00
3.90728e-01, 4.29873e-01, 4.10301e-01, 1.44499e-01, 3.69135e+00
4.29873e-01, 4.72933e-01, 4.51403e-01, 1.07366e-01, 2.49341e+00
4.72933e-01, 5.20299e-01, 4.96616e-01, 7.16846e-02, 1.51342e+00
5.20299e-01, 5.72401e-01, 5.46350e-01, 4.14039e-02, 7.94663e-01
5.72401e-01, 6.29714e-01, 6.01058e-01, 1.95257e-02, 3.40686e-01
6.29714e-01, 6.92758e-01, 6.61236e-01, 6.84888e-03, 1.08636e-01
6.92758e-01, 7.62106e-01, 7.27432e-01, 1.51906e-03, 2.19048e-02
7.62106e-01, 8.38390e-01, 8.00248e-01, 1.55692e-04, 2.04098e-03
8.38390e-01, 9.22301e-01, 8.80345e-01, 3.57295e-06, 4.25800e-05
9.22301e-01, 1.01460e+00, 9.68453e-01, 1.18785e-09, 1.28691e-08
1.01460e+00, 1.11614e+00, 1.06537e+00, 0.00000e+00, 0.00000e+00
1.11614e+00, 1.22782e+00, 1.17198e+00, 0.00000e+00, 0.00000e+00
1.22782e+00, 1.35068e+00, 1.28925e+00, 0.00000e+00, 0.00000e+00
1.35068e+00, 1.48582e+00, 1.41825e+00, 0.00000e+00, 0.00000e+00
1.48582e+00, 1.63447e+00, 1.56015e+00, 0.00000e+00, 0.00000e+00
1.63447e+00, 1.79799e+00, 1.71623e+00, 0.00000e+00, 0.00000e+00
1.79799e+00, 1.97786e+00, 1.88793e+00, 0.00000e+00, 0.00000e+00
1.97786e+00, 2.17572e+00, 2.07679e+00, 0.00000e+00, 0.00000e+00
2.17572e+00, 2.39337e+00, 2.28455e+00, 0.00000e+00, 0.00000e+00
2.39337e+00, 2.63278e+00, 2.51307e+00, 0.00000e+00, 0.00000e+00
2.63278e+00, 2.89613e+00, 2.76445e+00, 0.00000e+00, 0.00000e+00
2.89613e+00, 3.18581e+00, 3.04097e+00, 0.00000e+00, 0.00000e+00
3.18581e+00, 3.50447e+00, 3.34514e+00, 0.00000e+00, 0.00000e+00
3.50447e+00, 3.85499e+00, 3.67973e+00, 0.00000e+00, 0.00000e+00
3.85499e+00, 4.24056e+00, 4.04777e+00, 0.00000e+00, 0.00000e+00
4.24056e+00, 4.66469e+00, 4.45262e+00, 0.00000e+00, 0.00000e+00
4.66469e+00, 5.13123e+00, 4.89796e+00, 0.00000e+00, 0.00000e+00
5.13123e+00, 5.64442e+00, 5.38783e+00, 0.00000e+00, 0.00000e+00
5.64442e+00, 6.20894e+00, 5.92668e+00, 0.00000e+00, 0.00000e+00
6.20894e+00, 6.82990e+00, 6.51942e+00, 0.00000e+00, 0.00000e+00
6.82990e+00, 7.51297e+00, 7.17144e+00, 0.00000e+00, 0.00000e+00
7.51297e+00, 8.26434e+00, 7.88865e+00, 0.00000e+00, 0.00000e+00
8.26434e+00, 9.09084e+00, 8.67759e+00, 0.00000e+00, 0.00000e+00
9.09084e+00, 1.00000e+01, 9.54542e+00, 0.00000e+00, 0.00000e+00
