# time = 9.200000000000000e-01# start, end, pivot, particles, density
0.00000e+00, 7.25710e-04, 3.62855e-04, 7.25447e-04, 9.99637e-01
7.25710e-04, 1.52399e-03, 1.12485e-03, 2.52490e-03, 3.16292e+00
1.52399e-03, 2.40210e-03, 1.96305e-03, 2.77256e-03, 3.15743e+00
2.40210e-03, 3.36802e-03, 2.88506e-03, 3.04415e-03, 3.15156e+00
3.36802e-03, 4.43053e-03, 3.89928e-03, 3.34206e-03, 3.14543e+00
4.43053e-03, 5.59929e-03, 5.01491e-03, 3.66835e-03, 3.13866e+00
5.59929e-03, 6.88493e-03, 6.24211e-03, 4.02486e-03, 3.13063e+00
6.88493e-03, 8.29914e-03, 7.59203e-03, 4.41541e-03, 3.12219e+00
8.29914e-03, 9.85476e-03, 9.07695e-03, 4.84358e-03, 3.11360e+00
9.85476e-03, 1.15659e-02, 1.07104e-02, 5.30920e-03, 3.10265e+00
1.15659e-02, 1.34482e-02, 1.25071e-02, 5.82079e-03, 3.09238e+00
1.34482e-02, 1.55188e-02, 1.44835e-02, 6.37678e-03, 3.07977e+00
1.55188e-02, 1.77964e-02, 1.66576e-02, 6.98572e-03, 3.06716e+00
1.77964e-02, 2.03017e-02, 1.90490e-02, 7.64498e-03, 3.05146e+00
2.03017e-02, 2.30576e-02, 2.16797e-02, 8.36938e-03, 3.03692e+00
2.30576e-02, 2.60891e-02, 2.45733e-02, 9.15093e-03, 3.01864e+00
2.60891e-02, 2.94237e-02, 2.77564e-02, 1.00030e-02, 2.99974e+00
2.94237e-02, 3.30918e-02, 3.12577e-02, 1.09282e-02, 2.97927e+00
3.30918e-02, 3.71267e-02, 3.51092e-02, 1.19294e-02, 2.95657e+00
3.71267e-02, 4.15650e-02, 3.93458e-02, 1.30092e-02, 2.93108e+00
4.15650e-02, 4.64472e-02, 4.40061e-02, 1.41828e-02, 2.90499e+00
4.64472e-02, 5.18177e-02, 4.91325e-02, 1.54424e-02, 2.87544e+00
5.18177e-02, 5.77252e-02, 5.47714e-02, 1.67940e-02, 2.84283e+00
5.77252e-02, 6.42234e-02, 6.09743e-02, 1.82515e-02, 2.80870e+00
6.42234e-02, 7.13714e-02, 6.77974e-02, 1.98013e-02, 2.77017e+00
7.13714e-02, 7.92343e-02, 7.53029e-02, 2.14655e-02, 2.72998e+00
7.92343e-02, 8.78834e-02, 8.35588e-02, 2.32229e-02, 2.68499e+00
8.78834e-02, 9.73975e-02, 9.26404e-02, 2.50936e-02, 2.63753e+00
9.73975e-02, 1.07863e-01, 1.02630e-01, 2.70618e-02, 2.58582e+00
1.07863e-01, 1.19375e-01, 1.13619e-01, 2.91187e-02, 2.52942e+00
1.19375e-01, 1.32038e-01, 1.25707e-01, 3.12694e-02, 2.46931e+00
1.32038e-01, 1.45968e-01, 1.39003e-01, 3.34974e-02, 2.40478e+00
1.45968e-01, 1.61290e-01, 1.53629e-01, 3.58042e-02, 2.33671e+00
1.61290e-01, 1.78145e-01, 1.69717e-01, 3.81427e-02, 2.26303e+00
1.78145e-01, 1.96685e-01, 1.87415e-01, 4.04998e-02, 2.18443e+00
1.96685e-01, 2.17079e-01, 2.06882e-01, 4.28670e-02, 2.10192e+00
2.17079e-01, 2.39513e-01, 2.28296e-01, 4.51936e-02, 2.01455e+00
2.39513e-01, 2.64190e-01, 2.51851e-01, 4.74312e-02, 1.92208e+00
2.64190e-01, 2.91335e-01, 2.77762e-01, 4.95598e-02, 1.82576e+00
2.91335e-01, 3.21194e-01, 3.06264e-01, 5.15111e-02, 1.72513e+00
3.21194e-01, 3.54039e-01, 3.37616e-01, 5.32390e-02, 1.62091e+00
3.54039e-01, 3.90168e-01, 3.72104e-01, 5.46799e-02, 1.51344e+00
3.90168e-01, 4.29911e-01, 4.10040e-01, 5.57774e-02, 1.40347e+00
4.29911e-01, 4.73628e-01, 4.51769e-01, 5.64708e-02, 1.29174e+00
4.73628e-01, 5.21716e-01, 4.97672e-01, 5.67032e-02, 1.17914e+00
5.21716e-01, 5.74614e-01, 5.48165e-01, 5.64092e-02, 1.06639e+00
5.74614e-01, 6.32801e-01, 6.03707e-01, 5.55604e-02, 9.54857e-01
6.32801e-01, 6.96806e-01, 6.64804e-01, 5.41250e-02, 8.45627e-01
6.96806e-01, 7.67213e-01, 7.32010e-01, 5.20856e-02, 7.39786e-01
7.67213e-01, 8.44660e-01, 8.05936e-01, 4.94582e-02, 6.38607e-01
8.44660e-01, 9.29852e-01, 8.87256e-01, 4.62782e-02, 5.43224e-01
9.29852e-01, 1.02356e+00, 9.76707e-01, 4.26079e-02, 4.54674e-01
1.02356e+00, 1.12664e+00, 1.07510e+00, 3.85410e-02, 3.73887e-01
1.12664e+00, 1.24003e+00, 1.18334e+00, 3.41835e-02, 3.01468e-01
1.24003e+00, 1.36476e+00, 1.30240e+00, 2.96715e-02, 2.37888e-01
1.36476e+00, 1.50197e+00, 1.43336e+00, 2.51563e-02, 1.83352e-01
1.50197e+00, 1.65289e+00, 1.57743e+00, 2.07820e-02, 1.37700e-01
1.65289e+00, 1.81890e+00, 1.73590e+00, 1.66859e-02, 1.00509e-01
1.81890e+00, 2.00152e+00, 1.91021e+00, 1.29843e-02, 7.11017e-02
2.00152e+00, 2.20240e+00, 2.10196e+00, 9.76264e-03, 4.86000e-02
2.20240e+00, 2.42336e+00, 2.31288e+00, 7.06871e-03, 3.19902e-02
2.42336e+00, 2.66642e+00, 2.54489e+00, 4.91077e-03, 2.02038e-02
2.66642e+00, 2.93379e+00, 2.80011e+00, 3.26031e-03, 1.21941e-02
2.93379e+00, 3.22790e+00, 3.08084e+00, 2.05956e-03, 7.00282e-03
3.22790e+00, 3.55141e+00, 3.38965e+00, 1.23206e-03, 3.80836e-03
3.55141e+00, 3.90728e+00, 3.72934e+00, 6.94360e-04, 1.95118e-03
3.90728e+00, 4.29873e+00, 4.10301e+00, 3.66592e-04, 9.36490e-04
4.29873e+00, 4.72933e+00, 4.51403e+00, 1.80203e-04, 4.18493e-04
4.72933e+00, 5.20299e+00, 4.96616e+00, 8.19235e-05, 1.72959e-04
5.20299e+00, 5.72401e+00, 5.46350e+00, 3.42010e-05, 6.56418e-05
5.72401e+00, 6.29714e+00, 6.01058e+00, 1.30086e-05, 2.26977e-05
6.29714e+00, 6.92758e+00, 6.61236e+00, 4.47016e-06, 7.09054e-06
6.92758e+00, 7.62106e+00, 7.27432e+00, 1.37510e-06, 1.98288e-06
7.62106e+00, 8.38390e+00, 8.00248e+00, 3.74956e-07, 4.91531e-07
8.38390e+00, 9.22301e+00, 8.80345e+00, 8.96715e-08, 1.06864e-07
9.22301e+00, 1.01460e+01, 9.68453e+00, 1.85953e-08, 2.01460e-08
1.01460e+01, 1.11614e+01, 1.06537e+01, 3.30310e-09, 3.25323e-09
1.11614e+01, 1.22782e+01, 1.17198e+01, 4.96063e-10, 4.44157e-10
1.22782e+01, 1.35068e+01, 1.28925e+01, 6.21170e-11, 5.05613e-11
1.35068e+01, 1.48582e+01, 1.41825e+01, 6.39058e-12, 4.72885e-12
1.48582e+01, 1.63447e+01, 1.56015e+01, 5.31831e-13, 3.57763e-13
1.63447e+01, 1.79799e+01, 1.71623e+01, 3.52245e-14, 2.15414e-14
1.79799e+01, 1.97786e+01, 1.88793e+01, 1.82574e-15, 1.01502e-15
1.97786e+01, 2.17572e+01, 2.07679e+01, 7.27948e-17, 3.67912e-17
2.17572e+01, 2.39337e+01, 2.28455e+01, 2.19487e-18, 1.00847e-18
2.39337e+01, 2.63278e+01, 2.51307e+01, 4.92331e-20, 2.05644e-20
2.63278e+01, 2.89613e+01, 2.76445e+01, 8.09572e-22, 3.07413e-22
2.89613e+01, 3.18581e+01, 3.04097e+01, 9.64559e-24, 3.32968e-24
3.18581e+01, 3.50447e+01, 3.34514e+01, 8.26948e-26, 2.59513e-26
3.50447e+01, 3.85499e+01, 3.67973e+01, 5.10084e-28, 1.45522e-28
3.85499e+01, 4.24056e+01, 4.04777e+01, 2.28231e-30, 5.91929e-31
4.24056e+01, 4.66469e+01, 4.45262e+01, 7.53123e-33, 1.77570e-33
4.66469e+01, 5.13123e+01, 4.89796e+01, 1.87457e-35, 4.01802e-36
5.13123e+01, 5.64442e+01, 5.38783e+01, 3.93781e-38, 7.67311e-39
5.64442e+01, 6.20894e+01, 5.92668e+01, 7.28076e-41, 1.28974e-41
6.20894e+01, 6.82990e+01, 6.51942e+01, 1.20588e-43, 1.94193e-44
6.82990e+01, 7.51297e+01, 7.17144e+01, 1.01838e-44, 1.49090e-45
7.51297e+01, 8.26434e+01, 7.88865e+01, 8.45974e-45, 1.12591e-45
8.26434e+01, 9.09084e+01, 8.67759e+01, 7.10293e-45, 8.59392e-46
9.09084e+01, 1.00000e+02, 9.54542e+01, 3.71966e-44, 4.09133e-45
