# time = 1.800000000000000e-01# start, end, pivot, particles, density
0.00000e+00, 7.25710e-04, 3.62855e-04, 7.25447e-04, 9.99637e-01
7.25710e-04, 1.52399e-03, 1.12485e-03, 1.23116e-03, 1.54227e+00
1.52399e-03, 2.40210e-03, 1.96305e-03, 1.35283e-03, 1.54061e+00
2.40210e-03, 3.36802e-03, 2.88506e-03, 1.48635e-03, 1.53880e+00
3.36802e-03, 4.43053e-03, 3.89928e-03, 1.63289e-03, 1.53682e+00
4.43053e-03, 5.59929e-03, 5.01491e-03, 1.79365e-03, 1.53466e+00
5.59929e-03, 6.88493e-03, 6.24211e-03, 1.96989e-03, 1.53222e+00
6.88493e-03, 8.29914e-03, 7.59203e-03, 2.16314e-03, 1.52958e+00
8.29914e-03, 9.85476e-03, 9.07695e-03, 2.37503e-03, 1.52674e+00
9.85476e-03, 1.15659e-02, 1.07104e-02, 2.60697e-03, 1.52349e+00
1.15659e-02, 1.34482e-02, 1.25071e-02, 2.86123e-03, 1.52007e+00
1.34482e-02, 1.55188e-02, 1.44835e-02, 3.13935e-03, 1.51620e+00
1.55188e-02, 1.77964e-02, 1.66576e-02, 3.44385e-03, 1.51206e+00
1.77964e-02, 2.03017e-02, 1.90490e-02, 3.77645e-03, 1.50736e+00
2.03017e-02, 2.30576e-02, 2.16797e-02, 4.14050e-03, 1.50242e+00
2.30576e-02, 2.60891e-02, 2.45733e-02, 4.53755e-03, 1.49681e+00
2.60891e-02, 2.94237e-02, 2.77564e-02, 4.97112e-03, 1.49076e+00
2.94237e-02, 3.30918e-02, 3.12577e-02, 5.44396e-03, 1.48415e+00
3.30918e-02, 3.71267e-02, 3.51092e-02, 5.95902e-03, 1.47687e+00
3.71267e-02, 4.15650e-02, 3.93458e-02, 6.51933e-03, 1.46885e+00
4.15650e-02, 4.64472e-02, 4.40061e-02, 7.12915e-03, 1.46023e+00
4.64472e-02, 5.18177e-02, 4.91325e-02, 7.79091e-03, 1.45070e+00
5.18177e-02, 5.77252e-02, 5.47714e-02, 8.50829e-03, 1.44026e+00
5.77252e-02, 6.42234e-02, 6.09743e-02, 9.28576e-03, 1.42897e+00
6.42234e-02, 7.13714e-02, 6.77974e-02, 1.01254e-02, 1.41652e+00
7.13714e-02, 7.92343e-02, 7.53029e-02, 1.10324e-02, 1.40310e+00
7.92343e-02, 8.78834e-02, 8.35588e-02, 1.20080e-02, 1.38835e+00
8.78834e-02, 9.73975e-02, 9.26404e-02, 1.30572e-02, 1.37241e+00
9.73975e-02, 1.07863e-01, 1.02630e-01, 1.41812e-02, 1.35505e+00
1.07863e-01, 1.19375e-01, 1.13619e-01, 1.53816e-02, 1.33614e+00
1.19375e-01, 1.32038e-01, 1.25707e-01, 1.66608e-02, 1.31568e+00
1.32038e-01, 1.45968e-01, 1.39003e-01, 1.80184e-02, 1.29354e+00
1.45968e-01, 1.61290e-01, 1.53629e-01, 1.94551e-02, 1.26971e+00
1.61290e-01, 1.78145e-01, 1.69717e-01, 2.09656e-02, 1.24390e+00
1.78145e-01, 1.96685e-01, 1.87415e-01, 2.25466e-02, 1.21609e+00
1.96685e-01, 2.17079e-01, 2.06882e-01, 2.41937e-02, 1.18630e+00
2.17079e-01, 2.39513e-01, 2.28296e-01, 2.58963e-02, 1.15435e+00
2.39513e-01, 2.64190e-01, 2.51851e-01, 2.76418e-02, 1.12014e+00
2.64190e-01, 2.91335e-01, 2.77762e-01, 2.94176e-02, 1.08373e+00
2.91335e-01, 3.21194e-01, 3.06264e-01, 3.12035e-02, 1.04502e+00
3.21194e-01, 3.54039e-01, 3.37616e-01, 3.29777e-02, 1.00404e+00
3.54039e-01, 3.90168e-01, 3.72104e-01, 3.47133e-02, 9.60799e-01
3.90168e-01, 4.29911e-01, 4.10040e-01, 3.63798e-02, 9.15386e-01
4.29911e-01, 4.73628e-01, 4.51769e-01, 3.79422e-02, 8.67908e-01
4.73628e-01, 5.21716e-01, 4.97672e-01, 3.93617e-02, 8.18526e-01
5.21716e-01, 5.74614e-01, 5.48165e-01, 4.05941e-02, 7.67413e-01
5.74614e-01, 6.32801e-01, 6.03707e-01, 4.15964e-02, 7.14874e-01
6.32801e-01, 6.96806e-01, 6.64804e-01, 4.23223e-02, 6.61226e-01
6.96806e-01, 7.67213e-01, 7.32010e-01, 4.27250e-02, 6.06835e-01
7.67213e-01, 8.44660e-01, 8.05936e-01, 4.27625e-02, 5.52152e-01
8.44660e-01, 9.29852e-01, 8.87256e-01, 4.23971e-02, 4.97667e-01
9.29852e-01, 1.02356e+00, 9.76707e-01, 4.15996e-02, 4.43914e-01
1.02356e+00, 1.12664e+00, 1.07510e+00, 4.03531e-02, 3.91467e-01
1.12664e+00, 1.24003e+00, 1.18334e+00, 3.86529e-02, 3.40884e-01
1.24003e+00, 1.36476e+00, 1.30240e+00, 3.65136e-02, 2.92743e-01
1.36476e+00, 1.50197e+00, 1.43336e+00, 3.39709e-02, 2.47597e-01
1.50197e+00, 1.65289e+00, 1.57743e+00, 3.10789e-02, 2.05927e-01
1.65289e+00, 1.81890e+00, 1.73590e+00, 2.79125e-02, 1.68133e-01
1.81890e+00, 2.00152e+00, 1.91021e+00, 2.45640e-02, 1.34512e-01
2.00152e+00, 2.20240e+00, 2.10196e+00, 2.11389e-02, 1.05233e-01
2.20240e+00, 2.42336e+00, 2.31288e+00, 1.77488e-02, 8.03238e-02
2.42336e+00, 2.66642e+00, 2.54489e+00, 1.45040e-02, 5.96719e-02
2.66642e+00, 2.93379e+00, 2.80011e+00, 1.15042e-02, 4.30275e-02
2.93379e+00, 3.22790e+00, 3.08084e+00, 8.83033e-03, 3.00244e-02
3.22790e+00, 3.55141e+00, 3.38965e+00, 6.53768e-03, 2.02083e-02
3.55141e+00, 3.90728e+00, 3.72934e+00, 4.65188e-03, 1.30720e-02
3.90728e+00, 4.29873e+00, 4.10301e+00, 3.16862e-03, 8.09450e-03
4.29873e+00, 4.72933e+00, 4.51403e+00, 2.05711e-03, 4.77733e-03
4.72933e+00, 5.20299e+00, 4.96616e+00, 1.26680e-03, 2.67450e-03
5.20299e+00, 5.72401e+00, 5.46350e+00, 7.36162e-04, 1.41291e-03
5.72401e+00, 6.29714e+00, 6.01058e+00, 4.01384e-04, 7.00340e-04
6.29714e+00, 6.92758e+00, 6.61236e+00, 2.04062e-04, 3.23682e-04
6.92758e+00, 7.62106e+00, 7.27432e+00, 9.60777e-05, 1.38544e-04
7.62106e+00, 8.38390e+00, 8.00248e+00, 4.15839e-05, 5.45125e-05
8.38390e+00, 9.22301e+00, 8.80345e+00, 1.64127e-05, 1.95595e-05
9.22301e+00, 1.01460e+01, 9.68453e+00, 5.85615e-06, 6.34451e-06
1.01460e+01, 1.11614e+01, 1.06537e+01, 1.87132e-06, 1.84307e-06
1.11614e+01, 1.22782e+01, 1.17198e+01, 5.30158e-07, 4.74685e-07
1.22782e+01, 1.35068e+01, 1.28925e+01, 1.31730e-07, 1.07224e-07
1.35068e+01, 1.48582e+01, 1.41825e+01, 2.83762e-08, 2.09976e-08
1.48582e+01, 1.63447e+01, 1.56015e+01, 5.23416e-09, 3.52103e-09
1.63447e+01, 1.79799e+01, 1.71623e+01, 8.15880e-10, 4.98949e-10
1.79799e+01, 1.97786e+01, 1.88793e+01, 1.05967e-10, 5.89124e-11
1.97786e+01, 2.17572e+01, 2.07679e+01, 1.12965e-11, 5.70936e-12
2.17572e+01, 2.39337e+01, 2.28455e+01, 9.72703e-13, 4.46922e-13
2.39337e+01, 2.63278e+01, 2.51307e+01, 6.65103e-14, 2.77810e-14
2.63278e+01, 2.89613e+01, 2.76445e+01, 3.54714e-15, 1.34693e-15
2.89613e+01, 3.18581e+01, 3.04097e+01, 1.44818e-16, 4.99916e-17
3.18581e+01, 3.50447e+01, 3.34514e+01, 4.43990e-18, 1.39333e-18
3.50447e+01, 3.85499e+01, 3.67973e+01, 1.00257e-19, 2.86025e-20
3.85499e+01, 4.24056e+01, 4.04777e+01, 1.63623e-21, 4.24366e-22
4.24056e+01, 4.66469e+01, 4.45262e+01, 1.89663e-23, 4.47183e-24
4.66469e+01, 5.13123e+01, 4.89796e+01, 1.53920e-25, 3.29917e-26
5.13123e+01, 5.64442e+01, 5.38783e+01, 9.81092e-28, 1.91173e-28
5.64442e+01, 6.20894e+01, 5.92668e+01, 4.84060e-30, 8.57480e-31
6.20894e+01, 6.82990e+01, 6.51942e+01, 1.88564e-32, 3.03663e-33
6.82990e+01, 7.51297e+01, 7.17144e+01, 6.06015e-35, 8.87202e-36
7.51297e+01, 8.26434e+01, 7.88865e+01, 1.67491e-37, 2.22914e-38
8.26434e+01, 9.09084e+01, 8.67759e+01, 4.11036e-40, 4.97317e-41
9.09084e+01, 1.00000e+02, 9.54542e+01, 3.71966e-44, 4.09133e-45
