# time = 2.800000000000000e-01# start, end, pivot, particles, density
0.00000e+00, 7.25710e-04, 3.62855e-04, 1.34295e-03, 1.85054e+00
7.25710e-04, 1.52399e-03, 1.12485e-03, 1.47581e-03, 1.84873e+00
1.52399e-03, 2.40210e-03, 1.96305e-03, 1.62137e-03, 1.84644e+00
2.40210e-03, 3.36802e-03, 2.88506e-03, 1.78131e-03, 1.84416e+00
3.36802e-03, 4.43053e-03, 3.89928e-03, 1.95683e-03, 1.84170e+00
4.43053e-03, 5.59929e-03, 5.01491e-03, 2.14899e-03, 1.83869e+00
5.59929e-03, 6.88493e-03, 6.24211e-03, 2.36017e-03, 1.83579e+00
6.88493e-03, 8.29914e-03, 7.59203e-03, 2.59182e-03, 1.83271e+00
8.29914e-03, 9.85476e-03, 9.07695e-03, 2.84429e-03, 1.82839e+00
9.85476e-03, 1.15659e-02, 1.07104e-02, 3.12324e-03, 1.82519e+00
1.15659e-02, 1.34482e-02, 1.25071e-02, 3.42537e-03, 1.81977e+00
1.34482e-02, 1.55188e-02, 1.44835e-02, 3.75925e-03, 1.81559e+00
1.55188e-02, 1.77964e-02, 1.66576e-02, 4.12263e-03, 1.81009e+00
1.77964e-02, 2.03017e-02, 1.90490e-02, 4.52030e-03, 1.80426e+00
2.03017e-02, 2.30576e-02, 2.16797e-02, 4.95468e-03, 1.79786e+00
2.30576e-02, 2.60891e-02, 2.45733e-02, 5.42834e-03, 1.79066e+00
2.60891e-02, 2.94237e-02, 2.77564e-02, 5.94710e-03, 1.78344e+00
2.94237e-02, 3.30918e-02, 3.12577e-02, 6.50650e-03, 1.77382e+00
3.30918e-02, 3.71267e-02, 3.51092e-02, 7.12549e-03, 1.76597e+00
3.71267e-02, 4.15650e-02, 3.93458e-02, 7.79064e-03, 1.75529e+00
4.15650e-02, 4.64472e-02, 4.40061e-02, 8.51648e-03, 1.74439e+00
4.64472e-02, 5.18177e-02, 4.91325e-02, 9.30202e-03, 1.73208e+00
5.18177e-02, 5.77252e-02, 5.47714e-02, 1.01508e-02, 1.71830e+00
5.77252e-02, 6.42234e-02, 6.09743e-02, 1.10848e-02, 1.70582e+00
6.42234e-02, 7.13714e-02, 6.77974e-02, 1.20663e-02, 1.68805e+00
7.13714e-02, 7.92343e-02, 7.53029e-02, 1.31513e-02, 1.67258e+00
7.92343e-02, 8.78834e-02, 8.35588e-02, 1.42956e-02, 1.65284e+00
8.78834e-02, 9.73975e-02, 9.26404e-02, 1.55347e-02, 1.63281e+00
9.73975e-02, 1.07863e-01, 1.02630e-01, 1.68562e-02, 1.61065e+00
1.07863e-01, 1.19375e-01, 1.13619e-01, 1.82837e-02, 1.58823e+00
1.19375e-01, 1.32038e-01, 1.25707e-01, 1.97731e-02, 1.56146e+00
1.32038e-01, 1.45968e-01, 1.39003e-01, 2.13465e-02, 1.53247e+00
1.45968e-01, 1.61290e-01, 1.53629e-01, 2.30604e-02, 1.50501e+00
1.61290e-01, 1.78145e-01, 1.69717e-01, 2.47909e-02, 1.47086e+00
1.78145e-01, 1.96685e-01, 1.87415e-01, 2.66154e-02, 1.43555e+00
1.96685e-01, 2.17079e-01, 2.06882e-01, 2.85177e-02, 1.39832e+00
2.17079e-01, 2.39513e-01, 2.28296e-01, 3.05188e-02, 1.36040e+00
2.39513e-01, 2.64190e-01, 2.51851e-01, 3.24418e-02, 1.31466e+00
2.64190e-01, 2.91335e-01, 2.77762e-01, 3.45093e-02, 1.27131e+00
2.91335e-01, 3.21194e-01, 3.06264e-01, 3.65349e-02, 1.22357e+00
3.21194e-01, 3.54039e-01, 3.37616e-01, 3.84914e-02, 1.17191e+00
3.54039e-01, 3.90168e-01, 3.72104e-01, 4.03983e-02, 1.11815e+00
3.90168e-01, 4.29911e-01, 4.10040e-01, 4.21712e-02, 1.06111e+00
4.29911e-01, 4.73628e-01, 4.51769e-01, 4.38906e-02, 1.00398e+00
4.73628e-01, 5.21716e-01, 4.97672e-01, 4.53314e-02, 9.42666e-01
5.21716e-01, 5.74614e-01, 5.48165e-01, 4.65781e-02, 8.80538e-01
5.74614e-01, 6.32801e-01, 6.03707e-01, 4.75164e-02, 8.16614e-01
6.32801e-01, 6.96806e-01, 6.64804e-01, 4.81691e-02, 7.52574e-01
6.96806e-01, 7.67213e-01, 7.32010e-01, 4.82861e-02, 6.85820e-01
7.67213e-01, 8.44660e-01, 8.05936e-01, 4.80406e-02, 6.20303e-01
8.44660e-01, 9.29852e-01, 8.87256e-01, 4.73419e-02, 5.55710e-01
9.29852e-01, 1.02356e+00, 9.76707e-01, 4.61178e-02, 4.92129e-01
1.02356e+00, 1.12664e+00, 1.07510e+00, 4.43819e-02, 4.30549e-01
1.12664e+00, 1.24003e+00, 1.18334e+00, 4.21411e-02, 3.71647e-01
1.24003e+00, 1.36476e+00, 1.30240e+00, 3.94277e-02, 3.16107e-01
1.36476e+00, 1.50197e+00, 1.43336e+00, 3.62939e-02, 2.64529e-01
1.50197e+00, 1.65289e+00, 1.57743e+00, 3.28457e-02, 2.17633e-01
1.65289e+00, 1.81890e+00, 1.73590e+00, 2.90660e-02, 1.75081e-01
1.81890e+00, 2.00152e+00, 1.91021e+00, 2.52383e-02, 1.38204e-01
2.00152e+00, 2.20240e+00, 2.10196e+00, 2.13776e-02, 1.06421e-01
2.20240e+00, 2.42336e+00, 2.31288e+00, 1.76371e-02, 7.98185e-02
2.42336e+00, 2.66642e+00, 2.54489e+00, 1.41353e-02, 5.81553e-02
2.66642e+00, 2.93379e+00, 2.80011e+00, 1.09725e-02, 4.10390e-02
2.93379e+00, 3.22790e+00, 3.08084e+00, 8.22309e-03, 2.79597e-02
3.22790e+00, 3.55141e+00, 3.38965e+00, 5.92813e-03, 1.83241e-02
3.55141e+00, 3.90728e+00, 3.72934e+00, 4.09490e-03, 1.15068e-02
3.90728e+00, 4.29873e+00, 4.10301e+00, 2.69843e-03, 6.89335e-03
4.29873e+00, 4.72933e+00, 4.51403e+00, 1.68830e-03, 3.92082e-03
4.72933e+00, 5.20299e+00, 4.96616e+00, 9.97541e-04, 2.10603e-03
5.20299e+00, 5.72401e+00, 5.46350e+00, 5.53396e-04, 1.06213e-03
5.72401e+00, 6.29714e+00, 6.01058e+00, 2.86384e-04, 4.99687e-04
6.29714e+00, 6.92758e+00, 6.61236e+00, 1.37285e-04, 2.17760e-04
6.92758e+00, 7.62106e+00, 7.27432e+00, 6.04865e-05, 8.72211e-05
7.62106e+00, 8.38390e+00, 8.00248e+00, 2.42848e-05, 3.18350e-05
8.38390e+00, 9.22301e+00, 8.80345e+00, 8.80260e-06, 1.04903e-05
9.22301e+00, 1.01460e+01, 9.68453e+00, 2.85115e-06, 3.08892e-06
1.01460e+01, 1.11614e+01, 1.06537e+01, 8.16021e-07, 8.03700e-07
1.11614e+01, 1.22782e+01, 1.17198e+01, 2.03873e-07, 1.82541e-07
1.22782e+01, 1.35068e+01, 1.28925e+01, 4.38741e-08, 3.57121e-08
1.35068e+01, 1.48582e+01, 1.41825e+01, 8.01689e-09, 5.93227e-09
1.48582e+01, 1.63447e+01, 1.56015e+01, 1.22438e-09, 8.23643e-10
1.63447e+01, 1.79799e+01, 1.71623e+01, 1.53664e-10, 9.39725e-11
1.79799e+01, 1.97786e+01, 1.88793e+01, 1.55581e-11, 8.64953e-12
1.97786e+01, 2.17572e+01, 2.07679e+01, 1.24559e-12, 6.29536e-13
2.17572e+01, 2.39337e+01, 2.28455e+01, 7.71630e-14, 3.54536e-14
2.39337e+01, 2.63278e+01, 2.51307e+01, 3.61268e-15, 1.50899e-15
2.63278e+01, 2.89613e+01, 2.76445e+01, 1.24610e-16, 4.73172e-17
2.89613e+01, 3.18581e+01, 3.04097e+01, 3.08024e-18, 1.06331e-18
3.18581e+01, 3.50447e+01, 3.34514e+01, 5.29607e-20, 1.66201e-20
3.50447e+01, 3.85499e+01, 3.67973e+01, 6.13274e-22, 1.74962e-22
3.85499e+01, 4.24056e+01, 4.04777e+01, 4.62043e-24, 1.19833e-24
4.24056e+01, 4.66469e+01, 4.45262e+01, 2.18220e-26, 5.14514e-27
4.66469e+01, 5.13123e+01, 4.89796e+01, 6.21125e-29, 1.33134e-29
5.13123e+01, 5.64442e+01, 5.38783e+01, 1.02208e-31, 1.99161e-32
5.64442e+01, 6.20894e+01, 5.92668e+01, 9.31226e-35, 1.64960e-35
6.20894e+01, 6.82990e+01, 6.51942e+01, 4.49506e-38, 7.23881e-39
6.82990e+01, 7.51297e+01, 7.17144e+01, 1.10027e-41, 1.61079e-42
7.51297e+01, 8.26434e+01, 7.88865e+01, 2.51407e-45, 3.34599e-46
8.26434e+01, 9.09084e+01, 8.67759e+01, 0.00000e+00, 0.00000e+00
9.09084e+01, 1.00000e+02, 9.54542e+01, 1.42319e-53, 1.56540e-54
