# time = 5.400000000000000e-01# start, end, pivot, particles, density
0.00000e+00, 7.25710e-04, 3.62855e-04, 1.84460e-03, 2.54178e+00
7.25710e-04, 1.52399e-03, 1.12485e-03, 2.02693e-03, 2.53912e+00
1.52399e-03, 2.40210e-03, 1.96305e-03, 2.22597e-03, 2.53496e+00
2.40210e-03, 3.36802e-03, 2.88506e-03, 2.44512e-03, 2.53139e+00
3.36802e-03, 4.43053e-03, 3.89928e-03, 2.68547e-03, 2.52748e+00
4.43053e-03, 5.59929e-03, 5.01491e-03, 2.94820e-03, 2.52250e+00
5.59929e-03, 6.88493e-03, 6.24211e-03, 3.23723e-03, 2.51799e+00
6.88493e-03, 8.29914e-03, 7.59203e-03, 3.55427e-03, 2.51327e+00
8.29914e-03, 9.85476e-03, 9.07695e-03, 3.89784e-03, 2.50564e+00
9.85476e-03, 1.15659e-02, 1.07104e-02, 4.28050e-03, 2.50148e+00
1.15659e-02, 1.34482e-02, 1.25071e-02, 4.68998e-03, 2.49162e+00
1.34482e-02, 1.55188e-02, 1.44835e-02, 5.14679e-03, 2.48573e+00
1.55188e-02, 1.77964e-02, 1.66576e-02, 5.64105e-03, 2.47676e+00
1.77964e-02, 2.03017e-02, 1.90490e-02, 6.18135e-03, 2.46726e+00
2.03017e-02, 2.30576e-02, 2.16797e-02, 6.77168e-03, 2.45717e+00
2.30576e-02, 2.60891e-02, 2.45733e-02, 7.41326e-03, 2.44544e+00
2.60891e-02, 2.94237e-02, 2.77564e-02, 8.11793e-03, 2.43444e+00
2.94237e-02, 3.30918e-02, 3.12577e-02, 8.86813e-03, 2.41765e+00
3.30918e-02, 3.71267e-02, 3.51092e-02, 9.71234e-03, 2.40709e+00
3.71267e-02, 4.15650e-02, 3.93458e-02, 1.06008e-02, 2.38844e+00
4.15650e-02, 4.64472e-02, 4.40061e-02, 1.15809e-02, 2.37206e+00
4.64472e-02, 5.18177e-02, 4.91325e-02, 1.26309e-02, 2.35193e+00
5.18177e-02, 5.77252e-02, 5.47714e-02, 1.37604e-02, 2.32933e+00
5.77252e-02, 6.42234e-02, 6.09743e-02, 1.50217e-02, 2.31167e+00
6.42234e-02, 7.13714e-02, 6.77974e-02, 1.63055e-02, 2.28112e+00
7.13714e-02, 7.92343e-02, 7.53029e-02, 1.77581e-02, 2.25848e+00
7.92343e-02, 8.78834e-02, 8.35588e-02, 1.92524e-02, 2.22594e+00
8.78834e-02, 9.73975e-02, 9.26404e-02, 2.08794e-02, 2.19458e+00
9.73975e-02, 1.07863e-01, 1.02630e-01, 2.26013e-02, 2.15961e+00
1.07863e-01, 1.19375e-01, 1.13619e-01, 2.44713e-02, 2.12572e+00
1.19375e-01, 1.32038e-01, 1.25707e-01, 2.63736e-02, 2.08269e+00
1.32038e-01, 1.45968e-01, 1.39003e-01, 2.83660e-02, 2.03640e+00
1.45968e-01, 1.61290e-01, 1.53629e-01, 3.05912e-02, 1.99649e+00
1.61290e-01, 1.78145e-01, 1.69717e-01, 3.27256e-02, 1.94163e+00
1.78145e-01, 1.96685e-01, 1.87415e-01, 3.49782e-02, 1.88661e+00
1.96685e-01, 2.17079e-01, 2.06882e-01, 3.73130e-02, 1.82959e+00
2.17079e-01, 2.39513e-01, 2.28296e-01, 3.97918e-02, 1.77376e+00
2.39513e-01, 2.64190e-01, 2.51851e-01, 4.19726e-02, 1.70088e+00
2.64190e-01, 2.91335e-01, 2.77762e-01, 4.44482e-02, 1.63745e+00
2.91335e-01, 3.21194e-01, 3.06264e-01, 4.67604e-02, 1.56603e+00
3.21194e-01, 3.54039e-01, 3.37616e-01, 4.88740e-02, 1.48802e+00
3.54039e-01, 3.90168e-01, 3.72104e-01, 5.08739e-02, 1.40809e+00
3.90168e-01, 4.29911e-01, 4.10040e-01, 5.25921e-02, 1.32332e+00
4.29911e-01, 4.73628e-01, 4.51769e-01, 5.42702e-02, 1.24140e+00
4.73628e-01, 5.21716e-01, 4.97672e-01, 5.54141e-02, 1.15234e+00
5.21716e-01, 5.74614e-01, 5.48165e-01, 5.62877e-02, 1.06409e+00
5.74614e-01, 6.32801e-01, 6.03707e-01, 5.66796e-02, 9.74092e-01
6.32801e-01, 6.96806e-01, 6.64804e-01, 5.67040e-02, 8.85920e-01
6.96806e-01, 7.67213e-01, 7.32010e-01, 5.58696e-02, 7.93530e-01
7.67213e-01, 8.44660e-01, 8.05936e-01, 5.46319e-02, 7.05410e-01
8.44660e-01, 9.29852e-01, 8.87256e-01, 5.28433e-02, 6.20287e-01
9.29852e-01, 1.02356e+00, 9.76707e-01, 5.04082e-02, 5.37912e-01
1.02356e+00, 1.12664e+00, 1.07510e+00, 4.74060e-02, 4.59886e-01
1.12664e+00, 1.24003e+00, 1.18334e+00, 4.38818e-02, 3.86999e-01
1.24003e+00, 1.36476e+00, 1.30240e+00, 3.99257e-02, 3.20099e-01
1.36476e+00, 1.50197e+00, 1.43336e+00, 3.56380e-02, 2.59748e-01
1.50197e+00, 1.65289e+00, 1.57743e+00, 3.11964e-02, 2.06705e-01
1.65289e+00, 1.81890e+00, 1.73590e+00, 2.65601e-02, 1.59986e-01
1.81890e+00, 2.00152e+00, 1.91021e+00, 2.21500e-02, 1.21293e-01
2.00152e+00, 2.20240e+00, 2.10196e+00, 1.79322e-02, 8.92693e-02
2.20240e+00, 2.42336e+00, 2.31288e+00, 1.40760e-02, 6.37025e-02
2.42336e+00, 2.66642e+00, 2.54489e+00, 1.06793e-02, 4.39367e-02
2.66642e+00, 2.93379e+00, 2.80011e+00, 7.80379e-03, 2.91874e-02
2.93379e+00, 3.22790e+00, 3.08084e+00, 5.47225e-03, 1.86064e-02
3.22790e+00, 3.55141e+00, 3.38965e+00, 3.66647e-03, 1.13332e-02
3.55141e+00, 3.90728e+00, 3.72934e+00, 2.33648e-03, 6.56561e-03
3.90728e+00, 4.29873e+00, 4.10301e+00, 1.40893e-03, 3.59922e-03
4.29873e+00, 4.72933e+00, 4.51403e+00, 7.99553e-04, 1.85684e-03
4.72933e+00, 5.20299e+00, 4.96616e+00, 4.24313e-04, 8.95820e-04
5.20299e+00, 5.72401e+00, 5.46350e+00, 2.09186e-04, 4.01489e-04
5.72401e+00, 6.29714e+00, 6.01058e+00, 9.50843e-05, 1.65904e-04
6.29714e+00, 6.92758e+00, 6.61236e+00, 3.95330e-05, 6.27070e-05
6.92758e+00, 7.62106e+00, 7.27432e+00, 1.48994e-05, 2.14849e-05
7.62106e+00, 8.38390e+00, 8.00248e+00, 5.04061e-06, 6.60775e-06
8.38390e+00, 9.22301e+00, 8.80345e+00, 1.51481e-06, 1.80524e-06
9.22301e+00, 1.01460e+01, 9.68453e+00, 3.99673e-07, 4.33002e-07
1.01460e+01, 1.11614e+01, 1.06537e+01, 9.14184e-08, 9.00381e-08
1.11614e+01, 1.22782e+01, 1.17198e+01, 1.78804e-08, 1.60095e-08
1.22782e+01, 1.35068e+01, 1.28925e+01, 2.94574e-09, 2.39774e-09
1.35068e+01, 1.48582e+01, 1.41825e+01, 4.02235e-10, 2.97642e-10
1.48582e+01, 1.63447e+01, 1.56015e+01, 4.47183e-11, 3.00821e-11
1.63447e+01, 1.79799e+01, 1.71623e+01, 3.97117e-12, 2.42856e-12
1.79799e+01, 1.97786e+01, 1.88793e+01, 2.75892e-13, 1.53382e-13
1.97786e+01, 2.17572e+01, 2.07679e+01, 1.46605e-14, 7.40955e-15
2.17572e+01, 2.39337e+01, 2.28455e+01, 5.81500e-16, 2.67178e-16
2.39337e+01, 2.63278e+01, 2.51307e+01, 1.67679e-17, 7.00387e-18
2.63278e+01, 2.89613e+01, 2.76445e+01, 3.41623e-19, 1.29722e-19
2.89613e+01, 3.18581e+01, 3.04097e+01, 4.76873e-21, 1.64617e-21
3.18581e+01, 3.50447e+01, 3.34514e+01, 4.41253e-23, 1.38474e-23
3.50447e+01, 3.85499e+01, 3.67973e+01, 2.61215e-25, 7.45222e-26
3.85499e+01, 4.24056e+01, 4.04777e+01, 9.53010e-28, 2.47168e-28
4.24056e+01, 4.66469e+01, 4.45262e+01, 2.05908e-30, 4.85486e-31
4.66469e+01, 5.13123e+01, 4.89796e+01, 2.52839e-33, 5.41944e-34
5.13123e+01, 5.64442e+01, 5.38783e+01, 1.69149e-36, 3.29600e-37
5.64442e+01, 6.20894e+01, 5.92668e+01, 5.91048e-40, 1.04700e-40
6.20894e+01, 6.82990e+01, 6.51942e+01, 1.03538e-43, 1.66737e-44
6.82990e+01, 7.51297e+01, 7.17144e+01, 8.74676e-48, 1.28052e-48
7.51297e+01, 8.26434e+01, 7.88865e+01, 3.46541e-52, 4.61213e-53
8.26434e+01, 9.09084e+01, 8.67759e+01, 0.00000e+00, 0.00000e+00
9.09084e+01, 1.00000e+02, 9.54542e+01, 2.05756e-61, 2.26315e-62
