# time = 8.000000000000000e-01# start, end, pivot, particles, density
0.00000e+00, 7.25710e-04, 3.62855e-04, 7.25447e-04, 9.99637e-01
7.25710e-04, 1.52399e-03, 1.12485e-03, 2.38475e-03, 2.98736e+00
1.52399e-03, 2.40210e-03, 1.96305e-03, 2.61888e-03, 2.98241e+00
2.40210e-03, 3.36802e-03, 2.88506e-03, 2.87563e-03, 2.97709e+00
3.36802e-03, 4.43053e-03, 3.89928e-03, 3.15727e-03, 2.97152e+00
4.43053e-03, 5.59929e-03, 5.01491e-03, 3.46579e-03, 2.96535e+00
5.59929e-03, 6.88493e-03, 6.24211e-03, 3.80305e-03, 2.95810e+00
6.88493e-03, 8.29914e-03, 7.59203e-03, 4.17253e-03, 2.95045e+00
8.29914e-03, 9.85476e-03, 9.07695e-03, 4.57756e-03, 2.94259e+00
9.85476e-03, 1.15659e-02, 1.07104e-02, 5.01844e-03, 2.93273e+00
1.15659e-02, 1.34482e-02, 1.25071e-02, 5.50260e-03, 2.92333e+00
1.34482e-02, 1.55188e-02, 1.44835e-02, 6.02926e-03, 2.91193e+00
1.55188e-02, 1.77964e-02, 1.66576e-02, 6.60594e-03, 2.90041e+00
1.77964e-02, 2.03017e-02, 1.90490e-02, 7.23109e-03, 2.88626e+00
2.03017e-02, 2.30576e-02, 2.16797e-02, 7.91743e-03, 2.87292e+00
2.30576e-02, 2.60891e-02, 2.45733e-02, 8.65907e-03, 2.85639e+00
2.60891e-02, 2.94237e-02, 2.77564e-02, 9.46765e-03, 2.83920e+00
2.94237e-02, 3.30918e-02, 3.12577e-02, 1.03460e-02, 2.82056e+00
3.30918e-02, 3.71267e-02, 3.51092e-02, 1.12973e-02, 2.79991e+00
3.71267e-02, 4.15650e-02, 3.93458e-02, 1.23244e-02, 2.77679e+00
4.15650e-02, 4.64472e-02, 4.40061e-02, 1.34405e-02, 2.75295e+00
4.64472e-02, 5.18177e-02, 4.91325e-02, 1.46402e-02, 2.72607e+00
5.18177e-02, 5.77252e-02, 5.47714e-02, 1.59290e-02, 2.69641e+00
5.77252e-02, 6.42234e-02, 6.09743e-02, 1.73194e-02, 2.66525e+00
6.42234e-02, 7.13714e-02, 6.77974e-02, 1.88007e-02, 2.63018e+00
7.13714e-02, 7.92343e-02, 7.53029e-02, 2.03919e-02, 2.59345e+00
7.92343e-02, 8.78834e-02, 8.35588e-02, 2.20764e-02, 2.55244e+00
8.78834e-02, 9.73975e-02, 9.26404e-02, 2.38711e-02, 2.50904e+00
9.73975e-02, 1.07863e-01, 1.02630e-01, 2.57634e-02, 2.46176e+00
1.07863e-01, 1.19375e-01, 1.13619e-01, 2.77463e-02, 2.41021e+00
1.19375e-01, 1.32038e-01, 1.25707e-01, 2.98240e-02, 2.35517e+00
1.32038e-01, 1.45968e-01, 1.39003e-01, 3.19826e-02, 2.29603e+00
1.45968e-01, 1.61290e-01, 1.53629e-01, 3.42227e-02, 2.23350e+00
1.61290e-01, 1.78145e-01, 1.69717e-01, 3.65043e-02, 2.16582e+00
1.78145e-01, 1.96685e-01, 1.87415e-01, 3.88148e-02, 2.09355e+00
1.96685e-01, 2.17079e-01, 2.06882e-01, 4.11453e-02, 2.01750e+00
2.17079e-01, 2.39513e-01, 2.28296e-01, 4.34508e-02, 1.93686e+00
2.39513e-01, 2.64190e-01, 2.51851e-01, 4.56873e-02, 1.85141e+00
2.64190e-01, 2.91335e-01, 2.77762e-01, 4.78342e-02, 1.76219e+00
2.91335e-01, 3.21194e-01, 3.06264e-01, 4.98288e-02, 1.66879e+00
3.21194e-01, 3.54039e-01, 3.37616e-01, 5.16269e-02, 1.57183e+00
3.54039e-01, 3.90168e-01, 3.72104e-01, 5.31678e-02, 1.47159e+00
3.90168e-01, 4.29911e-01, 4.10040e-01, 5.43963e-02, 1.36872e+00
4.29911e-01, 4.73628e-01, 4.51769e-01, 5.52525e-02, 1.26387e+00
4.73628e-01, 5.21716e-01, 4.97672e-01, 5.56791e-02, 1.15785e+00
5.21716e-01, 5.74614e-01, 5.48165e-01, 5.56101e-02, 1.05128e+00
5.74614e-01, 6.32801e-01, 6.03707e-01, 5.50115e-02, 9.45425e-01
6.32801e-01, 6.96806e-01, 6.64804e-01, 5.38464e-02, 8.41275e-01
6.96806e-01, 7.67213e-01, 7.32010e-01, 5.20901e-02, 7.39850e-01
7.67213e-01, 8.44660e-01, 8.05936e-01, 4.97484e-02, 6.42354e-01
8.44660e-01, 9.29852e-01, 8.87256e-01, 4.68452e-02, 5.49880e-01
9.29852e-01, 1.02356e+00, 9.76707e-01, 4.34308e-02, 4.63455e-01
1.02356e+00, 1.12664e+00, 1.07510e+00, 3.95860e-02, 3.84024e-01
1.12664e+00, 1.24003e+00, 1.18334e+00, 3.54059e-02, 3.12248e-01
1.24003e+00, 1.36476e+00, 1.30240e+00, 3.10167e-02, 2.48672e-01
1.36476e+00, 1.50197e+00, 1.43336e+00, 2.65633e-02, 1.93607e-01
1.50197e+00, 1.65289e+00, 1.57743e+00, 2.21882e-02, 1.47017e-01
1.65289e+00, 1.81890e+00, 1.73590e+00, 1.80320e-02, 1.08617e-01
1.81890e+00, 2.00152e+00, 1.91021e+00, 1.42193e-02, 7.78643e-02
2.00152e+00, 2.20240e+00, 2.10196e+00, 1.08476e-02, 5.40010e-02
2.20240e+00, 2.42336e+00, 2.31288e+00, 7.98008e-03, 3.61146e-02
2.42336e+00, 2.66642e+00, 2.54489e+00, 5.64109e-03, 2.32085e-02
2.66642e+00, 2.93379e+00, 2.80011e+00, 3.81699e-03, 1.42761e-02
2.93379e+00, 3.22790e+00, 3.08084e+00, 2.46176e-03, 8.37036e-03
3.22790e+00, 3.55141e+00, 3.38965e+00, 1.50641e-03, 4.65636e-03
3.55141e+00, 3.90728e+00, 3.72934e+00, 8.70217e-04, 2.44534e-03
3.90728e+00, 4.29873e+00, 4.10301e+00, 4.71992e-04, 1.20574e-03
4.29873e+00, 4.72933e+00, 4.51403e+00, 2.38933e-04, 5.54885e-04
4.72933e+00, 5.20299e+00, 4.96616e+00, 1.12158e-04, 2.36791e-04
5.20299e+00, 5.72401e+00, 5.46350e+00, 4.84848e-05, 9.30566e-05
5.72401e+00, 6.29714e+00, 6.01058e+00, 1.91549e-05, 3.34217e-05
6.29714e+00, 6.92758e+00, 6.61236e+00, 6.85956e-06, 1.08806e-05
6.92758e+00, 7.62106e+00, 7.27432e+00, 2.20693e-06, 3.18238e-06
7.62106e+00, 8.38390e+00, 8.00248e+00, 6.31818e-07, 8.28253e-07
8.38390e+00, 9.22301e+00, 8.80345e+00, 1.59302e-07, 1.89845e-07
9.22301e+00, 1.01460e+01, 9.68453e+00, 3.49824e-08, 3.78997e-08
1.01460e+01, 1.11614e+01, 1.06537e+01, 6.61152e-09, 6.51170e-09
1.11614e+01, 1.22782e+01, 1.17198e+01, 1.06178e-09, 9.50685e-10
1.22782e+01, 1.35068e+01, 1.28925e+01, 1.42937e-10, 1.16346e-10
1.35068e+01, 1.48582e+01, 1.41825e+01, 1.58982e-11, 1.17642e-11
1.48582e+01, 1.63447e+01, 1.56015e+01, 1.43881e-12, 9.67886e-13
1.63447e+01, 1.79799e+01, 1.71623e+01, 1.04264e-13, 6.37620e-14
1.79799e+01, 1.97786e+01, 1.88793e+01, 5.94941e-15, 3.30758e-15
1.97786e+01, 2.17572e+01, 2.07679e+01, 2.62761e-16, 1.32802e-16
2.17572e+01, 2.39337e+01, 2.28455e+01, 8.82817e-18, 4.05622e-18
2.39337e+01, 2.63278e+01, 2.51307e+01, 2.21844e-19, 9.26628e-20
2.63278e+01, 2.89613e+01, 2.76445e+01, 4.10437e-21, 1.55852e-21
2.89613e+01, 3.18581e+01, 3.04097e+01, 5.51629e-23, 1.90423e-23
3.18581e+01, 3.50447e+01, 3.34514e+01, 5.33503e-25, 1.67424e-25
3.50447e+01, 3.85499e+01, 3.67973e+01, 3.69967e-27, 1.05548e-27
3.85499e+01, 4.24056e+01, 4.04777e+01, 1.84736e-29, 4.79123e-30
4.24056e+01, 4.66469e+01, 4.45262e+01, 6.72820e-32, 1.58636e-32
4.66469e+01, 5.13123e+01, 4.89796e+01, 1.82415e-34, 3.90995e-35
5.13123e+01, 5.64442e+01, 5.38783e+01, 4.13047e-37, 8.04853e-38
5.64442e+01, 6.20894e+01, 5.92668e+01, 8.15842e-40, 1.44521e-40
6.20894e+01, 6.82990e+01, 6.51942e+01, 1.43571e-42, 2.31205e-43
6.82990e+01, 7.51297e+01, 7.17144e+01, 1.15418e-44, 1.68972e-45
7.51297e+01, 8.26434e+01, 7.88865e+01, 8.46094e-45, 1.12607e-45
8.26434e+01, 9.09084e+01, 8.67759e+01, 7.10296e-45, 8.59396e-46
9.09084e+01, 1.00000e+02, 9.54542e+01, 3.71966e-44, 4.09133e-45
