# time = 7.200000000000000e-01# start, end, pivot, particles, density
0.00000e+00, 7.25710e-04, 3.62855e-04, 7.25447e-04, 9.99637e-01
7.25710e-04, 1.52399e-03, 1.12485e-03, 2.27720e-03, 2.85263e+00
1.52399e-03, 2.40210e-03, 1.96305e-03, 2.50091e-03, 2.84807e+00
2.40210e-03, 3.36802e-03, 2.88506e-03, 2.74626e-03, 2.84315e+00
3.36802e-03, 4.43053e-03, 3.89928e-03, 3.01538e-03, 2.83797e+00
4.43053e-03, 5.59929e-03, 5.01491e-03, 3.31024e-03, 2.83226e+00
5.59929e-03, 6.88493e-03, 6.24211e-03, 3.63266e-03, 2.82557e+00
6.88493e-03, 8.29914e-03, 7.59203e-03, 3.98591e-03, 2.81848e+00
8.29914e-03, 9.85476e-03, 9.07695e-03, 4.37312e-03, 2.81117e+00
9.85476e-03, 1.15659e-02, 1.07104e-02, 4.79490e-03, 2.80209e+00
1.15659e-02, 1.34482e-02, 1.25071e-02, 5.25792e-03, 2.79334e+00
1.34482e-02, 1.55188e-02, 1.44835e-02, 5.76191e-03, 2.78281e+00
1.55188e-02, 1.77964e-02, 1.66576e-02, 6.31370e-03, 2.77210e+00
1.77964e-02, 2.03017e-02, 1.90490e-02, 6.91241e-03, 2.75906e+00
2.03017e-02, 2.30576e-02, 2.16797e-02, 7.56935e-03, 2.74662e+00
2.30576e-02, 2.60891e-02, 2.45733e-02, 8.28001e-03, 2.73135e+00
2.60891e-02, 2.94237e-02, 2.77564e-02, 9.05485e-03, 2.71541e+00
2.94237e-02, 3.30918e-02, 3.12577e-02, 9.89685e-03, 2.69810e+00
3.30918e-02, 3.71267e-02, 3.51092e-02, 1.08093e-02, 2.67896e+00
3.71267e-02, 4.15650e-02, 3.93458e-02, 1.17952e-02, 2.65755e+00
4.15650e-02, 4.64472e-02, 4.40061e-02, 1.28665e-02, 2.63538e+00
4.64472e-02, 5.18177e-02, 4.91325e-02, 1.40192e-02, 2.61044e+00
5.18177e-02, 5.77252e-02, 5.47714e-02, 1.52587e-02, 2.58295e+00
5.77252e-02, 6.42234e-02, 6.09743e-02, 1.65962e-02, 2.55396e+00
6.42234e-02, 7.13714e-02, 6.77974e-02, 1.80233e-02, 2.52143e+00
7.13714e-02, 7.92343e-02, 7.53029e-02, 1.95568e-02, 2.48724e+00
7.92343e-02, 8.78834e-02, 8.35588e-02, 2.11829e-02, 2.44914e+00
8.78834e-02, 9.73975e-02, 9.26404e-02, 2.29168e-02, 2.40873e+00
9.73975e-02, 1.07863e-01, 1.02630e-01, 2.47478e-02, 2.36471e+00
1.07863e-01, 1.19375e-01, 1.13619e-01, 2.66702e-02, 2.31673e+00
1.19375e-01, 1.32038e-01, 1.25707e-01, 2.86878e-02, 2.26544e+00
1.32038e-01, 1.45968e-01, 1.39003e-01, 3.07883e-02, 2.21029e+00
1.45968e-01, 1.61290e-01, 1.53629e-01, 3.29719e-02, 2.15186e+00
1.61290e-01, 1.78145e-01, 1.69717e-01, 3.52035e-02, 2.08864e+00
1.78145e-01, 1.96685e-01, 1.87415e-01, 3.74711e-02, 2.02107e+00
1.96685e-01, 2.17079e-01, 2.06882e-01, 3.97656e-02, 1.94985e+00
2.17079e-01, 2.39513e-01, 2.28296e-01, 4.20461e-02, 1.87424e+00
2.39513e-01, 2.64190e-01, 2.51851e-01, 4.42720e-02, 1.79406e+00
2.64190e-01, 2.91335e-01, 2.77762e-01, 4.64223e-02, 1.71018e+00
2.91335e-01, 3.21194e-01, 3.06264e-01, 4.84391e-02, 1.62225e+00
3.21194e-01, 3.54039e-01, 3.37616e-01, 5.02792e-02, 1.53080e+00
3.54039e-01, 3.90168e-01, 3.72104e-01, 5.18847e-02, 1.43607e+00
3.90168e-01, 4.29911e-01, 4.10040e-01, 5.32016e-02, 1.33866e+00
4.29911e-01, 4.73628e-01, 4.51769e-01, 5.41711e-02, 1.23914e+00
4.73628e-01, 5.21716e-01, 4.97672e-01, 5.47357e-02, 1.13823e+00
5.21716e-01, 5.74614e-01, 5.48165e-01, 5.48300e-02, 1.03654e+00
5.74614e-01, 6.32801e-01, 6.03707e-01, 5.44162e-02, 9.35194e-01
6.32801e-01, 6.96806e-01, 6.64804e-01, 5.34540e-02, 8.35144e-01
6.96806e-01, 7.67213e-01, 7.32010e-01, 5.19139e-02, 7.37347e-01
7.67213e-01, 8.44660e-01, 8.05936e-01, 4.97944e-02, 6.42948e-01
8.44660e-01, 9.29852e-01, 8.87256e-01, 4.71113e-02, 5.53003e-01
9.29852e-01, 1.02356e+00, 9.76707e-01, 4.39054e-02, 4.68520e-01
1.02356e+00, 1.12664e+00, 1.07510e+00, 4.02478e-02, 3.90444e-01
1.12664e+00, 1.24003e+00, 1.18334e+00, 3.62246e-02, 3.19468e-01
1.24003e+00, 1.36476e+00, 1.30240e+00, 3.19535e-02, 2.56183e-01
1.36476e+00, 1.50197e+00, 1.43336e+00, 2.75733e-02, 2.00968e-01
1.50197e+00, 1.65289e+00, 1.57743e+00, 2.32236e-02, 1.53878e-01
1.65289e+00, 1.81890e+00, 1.73590e+00, 1.90458e-02, 1.14724e-01
1.81890e+00, 2.00152e+00, 1.91021e+00, 1.51690e-02, 8.30649e-02
2.00152e+00, 2.20240e+00, 2.10196e+00, 1.16990e-02, 5.82393e-02
2.20240e+00, 2.42336e+00, 2.31288e+00, 8.70972e-03, 3.94167e-02
2.42336e+00, 2.66642e+00, 2.54489e+00, 6.23775e-03, 2.56632e-02
2.66642e+00, 2.93379e+00, 2.80011e+00, 4.28135e-03, 1.60130e-02
2.93379e+00, 3.22790e+00, 3.08084e+00, 2.80462e-03, 9.53613e-03
3.22790e+00, 3.55141e+00, 3.38965e+00, 1.74565e-03, 5.39590e-03
3.55141e+00, 3.90728e+00, 3.72934e+00, 1.02732e-03, 2.88681e-03
3.90728e+00, 4.29873e+00, 4.10301e+00, 5.68594e-04, 1.45252e-03
4.29873e+00, 4.72933e+00, 4.51403e+00, 2.94255e-04, 6.83363e-04
4.72933e+00, 5.20299e+00, 4.96616e+00, 1.41486e-04, 2.98710e-04
5.20299e+00, 5.72401e+00, 5.46350e+00, 6.27838e-05, 1.20501e-04
5.72401e+00, 6.29714e+00, 6.01058e+00, 2.55200e-05, 4.45277e-05
6.29714e+00, 6.92758e+00, 6.61236e+00, 9.42616e-06, 1.49517e-05
6.92758e+00, 7.62106e+00, 7.27432e+00, 3.13638e-06, 4.52264e-06
7.62106e+00, 8.38390e+00, 8.00248e+00, 9.31297e-07, 1.22084e-06
8.38390e+00, 9.22301e+00, 8.80345e+00, 2.44298e-07, 2.91137e-07
9.22301e+00, 1.01460e+01, 9.68453e+00, 5.60008e-08, 6.06708e-08
1.01460e+01, 1.11614e+01, 1.06537e+01, 1.10875e-08, 1.09201e-08
1.11614e+01, 1.22782e+01, 1.17198e+01, 1.87241e-09, 1.67649e-09
1.22782e+01, 1.35068e+01, 1.28925e+01, 2.66124e-10, 2.16617e-10
1.35068e+01, 1.48582e+01, 1.41825e+01, 3.13835e-11, 2.32229e-11
1.48582e+01, 1.63447e+01, 1.56015e+01, 3.02483e-12, 2.03480e-12
1.63447e+01, 1.79799e+01, 1.71623e+01, 2.34519e-13, 1.43419e-13
1.79799e+01, 1.97786e+01, 1.88793e+01, 1.43854e-14, 7.99759e-15
1.97786e+01, 2.17572e+01, 2.07679e+01, 6.86245e-16, 3.46835e-16
2.17572e+01, 2.39337e+01, 2.28455e+01, 2.50193e-17, 1.14955e-17
2.39337e+01, 2.63278e+01, 2.51307e+01, 6.85186e-19, 2.86199e-19
2.63278e+01, 2.89613e+01, 2.76445e+01, 1.38660e-20, 5.26524e-21
2.89613e+01, 3.18581e+01, 3.04097e+01, 2.04359e-22, 7.05453e-23
3.18581e+01, 3.50447e+01, 3.34514e+01, 2.16907e-24, 6.80699e-25
3.50447e+01, 3.85499e+01, 3.67973e+01, 1.64811e-26, 4.70190e-27
3.85499e+01, 4.24056e+01, 4.04777e+01, 8.97530e-29, 2.32779e-29
4.24056e+01, 4.66469e+01, 4.45262e+01, 3.53773e-31, 8.34117e-32
4.66469e+01, 5.13123e+01, 4.89796e+01, 1.02775e-33, 2.20292e-34
5.13123e+01, 5.64442e+01, 5.38783e+01, 2.47264e-36, 4.81813e-37
5.64442e+01, 6.20894e+01, 5.92668e+01, 5.14795e-39, 9.11924e-40
6.20894e+01, 6.82990e+01, 6.51942e+01, 9.50001e-42, 1.52988e-42
6.82990e+01, 7.51297e+01, 7.17144e+01, 2.00946e-44, 2.94183e-45
7.51297e+01, 8.26434e+01, 7.88865e+01, 8.46936e-45, 1.12719e-45
8.26434e+01, 9.09084e+01, 8.67759e+01, 7.10298e-45, 8.59398e-46
9.09084e+01, 1.00000e+02, 9.54542e+01, 3.71966e-44, 4.09133e-45
