# time = 0.000000000000000e+00# start, end, pivot, particles, density
0.00000e+00, 7.25710e-04, 3.62855e-04, 7.25447e-04, 9.99637e-01
7.25710e-04, 1.52399e-03, 1.12485e-03, 7.97383e-04, 9.98876e-01
1.52399e-03, 2.40210e-03, 1.96305e-03, 8.76387e-04, 9.98039e-01
2.40210e-03, 3.36802e-03, 2.88506e-03, 9.63137e-04, 9.97119e-01
3.36802e-03, 4.43053e-03, 3.89928e-03, 1.05838e-03, 9.96108e-01
4.43053e-03, 5.59929e-03, 5.01491e-03, 1.16292e-03, 9.94998e-01
5.59929e-03, 6.88493e-03, 6.24211e-03, 1.27764e-03, 9.93777e-01
6.88493e-03, 8.29914e-03, 7.59203e-03, 1.40351e-03, 9.92437e-01
8.29914e-03, 9.85476e-03, 9.07695e-03, 1.54157e-03, 9.90964e-01
9.85476e-03, 1.15659e-02, 1.07104e-02, 1.69296e-03, 9.89347e-01
1.15659e-02, 1.34482e-02, 1.25071e-02, 1.85891e-03, 9.87571e-01
1.34482e-02, 1.55188e-02, 1.44835e-02, 2.04076e-03, 9.85621e-01
1.55188e-02, 1.77964e-02, 1.66576e-02, 2.23996e-03, 9.83481e-01
1.77964e-02, 2.03017e-02, 1.90490e-02, 2.45807e-03, 9.81131e-01
2.03017e-02, 2.30576e-02, 2.16797e-02, 2.69678e-03, 9.78554e-01
2.30576e-02, 2.60891e-02, 2.45733e-02, 2.95789e-03, 9.75727e-01
2.60891e-02, 2.94237e-02, 2.77564e-02, 3.24333e-03, 9.72626e-01
2.94237e-02, 3.30918e-02, 3.12577e-02, 3.55520e-03, 9.69226e-01
3.30918e-02, 3.71267e-02, 3.51092e-02, 3.89569e-03, 9.65501e-01
3.71267e-02, 4.15650e-02, 3.93458e-02, 4.26714e-03, 9.61419e-01
4.15650e-02, 4.64472e-02, 4.40061e-02, 4.67203e-03, 9.56949e-01
4.64472e-02, 5.18177e-02, 4.91325e-02, 5.11295e-03, 9.52056e-01
5.18177e-02, 5.77252e-02, 5.47714e-02, 5.59263e-03, 9.46703e-01
5.77252e-02, 6.42234e-02, 6.09743e-02, 6.11385e-03, 9.40849e-01
6.42234e-02, 7.13714e-02, 6.77974e-02, 6.67951e-03, 9.34452e-01
7.13714e-02, 7.92343e-02, 7.53029e-02, 7.29252e-03, 9.27465e-01
7.92343e-02, 8.78834e-02, 8.35588e-02, 7.95582e-03, 9.19840e-01
8.78834e-02, 9.73975e-02, 9.26404e-02, 8.67229e-03, 9.11525e-01
9.73975e-02, 1.07863e-01, 1.02630e-01, 9.44471e-03, 9.02465e-01
1.07863e-01, 1.19375e-01, 1.13619e-01, 1.02756e-02, 8.92603e-01
1.19375e-01, 1.32038e-01, 1.25707e-01, 1.11674e-02, 8.81880e-01
1.32038e-01, 1.45968e-01, 1.39003e-01, 1.21219e-02, 8.70233e-01
1.45968e-01, 1.61290e-01, 1.53629e-01, 1.31405e-02, 8.57599e-01
1.61290e-01, 1.78145e-01, 1.69717e-01, 1.42239e-02, 8.43913e-01
1.78145e-01, 1.96685e-01, 1.87415e-01, 1.53719e-02, 8.29112e-01
1.96685e-01, 2.17079e-01, 2.06882e-01, 1.65831e-02, 8.13130e-01
2.17079e-01, 2.39513e-01, 2.28296e-01, 1.78550e-02, 7.95905e-01
2.39513e-01, 2.64190e-01, 2.51851e-01, 1.91834e-02, 7.77380e-01
2.64190e-01, 2.91335e-01, 2.77762e-01, 2.05621e-02, 7.57500e-01
2.91335e-01, 3.21194e-01, 3.06264e-01, 2.19829e-02, 7.36219e-01
3.21194e-01, 3.54039e-01, 3.37616e-01, 2.34350e-02, 7.13501e-01
3.54039e-01, 3.90168e-01, 3.72104e-01, 2.49049e-02, 6.89320e-01
3.90168e-01, 4.29911e-01, 4.10040e-01, 2.63758e-02, 6.63668e-01
4.29911e-01, 4.73628e-01, 4.51769e-01, 2.78280e-02, 6.36552e-01
4.73628e-01, 5.21716e-01, 4.97672e-01, 2.92379e-02, 6.08003e-01
5.21716e-01, 5.74614e-01, 5.48165e-01, 3.05787e-02, 5.78077e-01
5.74614e-01, 6.32801e-01, 6.03707e-01, 3.18201e-02, 5.46858e-01
6.32801e-01, 6.96806e-01, 6.64804e-01, 3.29286e-02, 5.14462e-01
6.96806e-01, 7.67213e-01, 7.32010e-01, 3.38683e-02, 4.81041e-01
7.67213e-01, 8.44660e-01, 8.05936e-01, 3.46019e-02, 4.46781e-01
8.44660e-01, 9.29852e-01, 8.87256e-01, 3.50912e-02, 4.11909e-01
9.29852e-01, 1.02356e+00, 9.76707e-01, 3.52996e-02, 3.76687e-01
1.02356e+00, 1.12664e+00, 1.07510e+00, 3.51936e-02, 3.41414e-01
1.12664e+00, 1.24003e+00, 1.18334e+00, 3.47448e-02, 3.06418e-01
1.24003e+00, 1.36476e+00, 1.30240e+00, 3.39332e-02, 2.72055e-01
1.36476e+00, 1.50197e+00, 1.43336e+00, 3.27491e-02, 2.38692e-01
1.50197e+00, 1.65289e+00, 1.57743e+00, 3.11959e-02, 2.06702e-01
1.65289e+00, 1.81890e+00, 1.73590e+00, 2.92924e-02, 1.76445e-01
1.81890e+00, 2.00152e+00, 1.91021e+00, 2.70737e-02, 1.48255e-01
2.00152e+00, 2.20240e+00, 2.10196e+00, 2.45919e-02, 1.22423e-01
2.20240e+00, 2.42336e+00, 2.31288e+00, 2.19148e-02, 9.91774e-02
2.42336e+00, 2.66642e+00, 2.54489e+00, 1.91229e-02, 7.86748e-02
2.66642e+00, 2.93379e+00, 2.80011e+00, 1.63054e-02, 6.09848e-02
2.93379e+00, 3.22790e+00, 3.08084e+00, 1.35542e-02, 4.60862e-02
3.22790e+00, 3.55141e+00, 3.38965e+00, 1.09567e-02, 3.38676e-02
3.55141e+00, 3.90728e+00, 3.72934e+00, 8.58901e-03, 2.41354e-02
3.90728e+00, 4.29873e+00, 4.10301e+00, 6.50934e-03, 1.66286e-02
4.29873e+00, 4.72933e+00, 4.51403e+00, 4.75340e-03, 1.10390e-02
4.72933e+00, 5.20299e+00, 4.96616e+00, 3.33228e-03, 7.03520e-03
5.20299e+00, 5.72401e+00, 5.46350e+00, 2.23353e-03, 4.28679e-03
5.72401e+00, 6.29714e+00, 6.01058e+00, 1.42501e-03, 2.48638e-03
6.29714e+00, 6.92758e+00, 6.61236e+00, 8.61192e-04, 1.36602e-03
6.92758e+00, 7.62106e+00, 7.27432e+00, 4.90350e-04, 7.07082e-04
7.62106e+00, 8.38390e+00, 8.00248e+00, 2.61502e-04, 3.42804e-04
8.38390e+00, 9.22301e+00, 8.80345e+00, 1.29777e-04, 1.54659e-04
9.22301e+00, 1.01460e+01, 9.68453e+00, 5.95096e-05, 6.44723e-05
1.01460e+01, 1.11614e+01, 1.06537e+01, 2.50184e-05, 2.46406e-05
1.11614e+01, 1.22782e+01, 1.17198e+01, 9.56086e-06, 8.56047e-06
1.22782e+01, 1.35068e+01, 1.28925e+01, 3.29022e-06, 2.67813e-06
1.35068e+01, 1.48582e+01, 1.41825e+01, 1.00918e-06, 7.46767e-07
1.48582e+01, 1.63447e+01, 1.56015e+01, 2.72790e-07, 1.83506e-07
1.63447e+01, 1.79799e+01, 1.71623e+01, 6.41826e-08, 3.92506e-08
1.79799e+01, 1.97786e+01, 1.88793e+01, 1.29669e-08, 7.20899e-09
1.97786e+01, 2.17572e+01, 2.07679e+01, 2.21624e-09, 1.12011e-09
2.17572e+01, 2.39337e+01, 2.28455e+01, 3.15253e-10, 1.44847e-10
2.39337e+01, 2.63278e+01, 2.51307e+01, 3.66585e-11, 1.53120e-11
2.63278e+01, 2.89613e+01, 2.76445e+01, 3.41680e-12, 1.29744e-12
2.89613e+01, 3.18581e+01, 3.04097e+01, 2.49814e-13, 8.62362e-14
3.18581e+01, 3.50447e+01, 3.34514e+01, 1.39915e-14, 4.39080e-15
3.50447e+01, 3.85499e+01, 3.67973e+01, 5.84849e-16, 1.66852e-16
3.85499e+01, 4.24056e+01, 4.04777e+01, 1.77303e-17, 4.59846e-18
4.24056e+01, 4.66469e+01, 4.45262e+01, 3.77742e-19, 8.90631e-20
4.66469e+01, 5.13123e+01, 4.89796e+01, 5.46280e-21, 1.17091e-21
5.13123e+01, 5.64442e+01, 5.38783e+01, 5.16165e-23, 1.00579e-23
5.64442e+01, 6.20894e+01, 5.92668e+01, 3.05523e-25, 5.41213e-26
6.20894e+01, 6.82990e+01, 6.51942e+01, 1.08156e-27, 1.74174e-28
6.82990e+01, 7.51297e+01, 7.17144e+01, 2.17587e-30, 3.18545e-31
7.51297e+01, 8.26434e+01, 7.88865e+01, 2.35158e-33, 3.12972e-34
8.26434e+01, 9.09084e+01, 8.67759e+01, 1.28330e-36, 1.55268e-37
9.09084e+01, 1.00000e+02, 9.54542e+01, 3.71966e-44, 4.09133e-45
