# time = 3.000000000000000e-01# start, end, pivot, particles, density
0.00000e+00, 7.25710e-04, 3.62855e-04, 1.39094e-03, 1.91667e+00
7.25710e-04, 1.52399e-03, 1.12485e-03, 1.52856e-03, 1.91482e+00
1.52399e-03, 2.40210e-03, 1.96305e-03, 1.67939e-03, 1.91251e+00
2.40210e-03, 3.36802e-03, 2.88506e-03, 1.84508e-03, 1.91018e+00
3.36802e-03, 4.43053e-03, 3.89928e-03, 2.02692e-03, 1.90766e+00
4.43053e-03, 5.59929e-03, 5.01491e-03, 2.22602e-03, 1.90459e+00
5.59929e-03, 6.88493e-03, 6.24211e-03, 2.44482e-03, 1.90163e+00
6.88493e-03, 8.29914e-03, 7.59203e-03, 2.68482e-03, 1.89847e+00
8.29914e-03, 9.85476e-03, 9.07695e-03, 2.94651e-03, 1.89410e+00
9.85476e-03, 1.15659e-02, 1.07104e-02, 3.23548e-03, 1.89078e+00
1.15659e-02, 1.34482e-02, 1.25071e-02, 3.54873e-03, 1.88531e+00
1.34482e-02, 1.55188e-02, 1.44835e-02, 3.89469e-03, 1.88100e+00
1.55188e-02, 1.77964e-02, 1.66576e-02, 4.27136e-03, 1.87539e+00
1.77964e-02, 2.03017e-02, 1.90490e-02, 4.68360e-03, 1.86944e+00
2.03017e-02, 2.30576e-02, 2.16797e-02, 5.13393e-03, 1.86290e+00
2.30576e-02, 2.60891e-02, 2.45733e-02, 5.62507e-03, 1.85556e+00
2.60891e-02, 2.94237e-02, 2.77564e-02, 6.16289e-03, 1.84816e+00
2.94237e-02, 3.30918e-02, 3.12577e-02, 6.74336e-03, 1.83839e+00
3.30918e-02, 3.71267e-02, 3.51092e-02, 7.38500e-03, 1.83029e+00
3.71267e-02, 4.15650e-02, 3.93458e-02, 8.07528e-03, 1.81942e+00
4.15650e-02, 4.64472e-02, 4.40061e-02, 8.82828e-03, 1.80825e+00
4.64472e-02, 5.18177e-02, 4.91325e-02, 9.64361e-03, 1.79568e+00
5.18177e-02, 5.77252e-02, 5.47714e-02, 1.05249e-02, 1.78162e+00
5.77252e-02, 6.42234e-02, 6.09743e-02, 1.14938e-02, 1.76876e+00
6.42234e-02, 7.13714e-02, 6.77974e-02, 1.25140e-02, 1.75069e+00
7.13714e-02, 7.92343e-02, 7.53029e-02, 1.36402e-02, 1.73476e+00
7.92343e-02, 8.78834e-02, 8.35588e-02, 1.48299e-02, 1.71461e+00
8.78834e-02, 9.73975e-02, 9.26404e-02, 1.61176e-02, 1.69408e+00
9.73975e-02, 1.07863e-01, 1.02630e-01, 1.74918e-02, 1.67138e+00
1.07863e-01, 1.19375e-01, 1.13619e-01, 1.89755e-02, 1.64832e+00
1.19375e-01, 1.32038e-01, 1.25707e-01, 2.05260e-02, 1.62092e+00
1.32038e-01, 1.45968e-01, 1.39003e-01, 2.21648e-02, 1.59121e+00
1.45968e-01, 1.61290e-01, 1.53629e-01, 2.39472e-02, 1.56288e+00
1.61290e-01, 1.78145e-01, 1.69717e-01, 2.57520e-02, 1.52788e+00
1.78145e-01, 1.96685e-01, 1.87415e-01, 2.76543e-02, 1.49159e+00
1.96685e-01, 2.17079e-01, 2.06882e-01, 2.96382e-02, 1.45327e+00
2.17079e-01, 2.39513e-01, 2.28296e-01, 3.17240e-02, 1.41412e+00
2.39513e-01, 2.64190e-01, 2.51851e-01, 3.37357e-02, 1.36709e+00
2.64190e-01, 2.91335e-01, 2.77762e-01, 3.58929e-02, 1.32228e+00
2.91335e-01, 3.21194e-01, 3.06264e-01, 3.80097e-02, 1.27297e+00
3.21194e-01, 3.54039e-01, 3.37616e-01, 4.00571e-02, 1.21958e+00
3.54039e-01, 3.90168e-01, 3.72104e-01, 4.20524e-02, 1.16393e+00
3.90168e-01, 4.29911e-01, 4.10040e-01, 4.39088e-02, 1.10483e+00
4.29911e-01, 4.73628e-01, 4.51769e-01, 4.57056e-02, 1.04549e+00
4.73628e-01, 5.21716e-01, 4.97672e-01, 4.72126e-02, 9.81785e-01
5.21716e-01, 5.74614e-01, 5.48165e-01, 4.85124e-02, 9.17105e-01
5.74614e-01, 6.32801e-01, 6.03707e-01, 4.94860e-02, 8.50463e-01
6.32801e-01, 6.96806e-01, 6.64804e-01, 5.01547e-02, 7.83596e-01
6.96806e-01, 7.67213e-01, 7.32010e-01, 5.02557e-02, 7.13795e-01
7.67213e-01, 8.44660e-01, 8.05936e-01, 4.99659e-02, 6.45163e-01
8.44660e-01, 9.29852e-01, 8.87256e-01, 4.91899e-02, 5.77402e-01
9.29852e-01, 1.02356e+00, 9.76707e-01, 4.78495e-02, 5.10608e-01
1.02356e+00, 1.12664e+00, 1.07510e+00, 4.59576e-02, 4.45835e-01
1.12664e+00, 1.24003e+00, 1.18334e+00, 4.35213e-02, 3.83819e-01
1.24003e+00, 1.36476e+00, 1.30240e+00, 4.05753e-02, 3.25307e-01
1.36476e+00, 1.50197e+00, 1.43336e+00, 3.71772e-02, 2.70967e-01
1.50197e+00, 1.65289e+00, 1.57743e+00, 3.34451e-02, 2.21605e-01
1.65289e+00, 1.81890e+00, 1.73590e+00, 2.93606e-02, 1.76856e-01
1.81890e+00, 2.00152e+00, 1.91021e+00, 2.52415e-02, 1.38222e-01
2.00152e+00, 2.20240e+00, 2.10196e+00, 2.11069e-02, 1.05073e-01
2.20240e+00, 2.42336e+00, 2.31288e+00, 1.71301e-02, 7.75241e-02
2.42336e+00, 2.66642e+00, 2.54489e+00, 1.34452e-02, 5.53161e-02
2.66642e+00, 2.93379e+00, 2.80011e+00, 1.01640e-02, 3.80149e-02
2.93379e+00, 3.22790e+00, 3.08084e+00, 7.36637e-03, 2.50467e-02
3.22790e+00, 3.55141e+00, 3.38965e+00, 5.09160e-03, 1.57384e-02
3.55141e+00, 3.90728e+00, 3.72934e+00, 3.33713e-03, 9.37746e-03
3.90728e+00, 4.29873e+00, 4.10301e+00, 2.06147e-03, 5.26620e-03
4.29873e+00, 4.72933e+00, 4.51403e+00, 1.19365e-03, 2.77207e-03
4.72933e+00, 5.20299e+00, 4.96616e+00, 6.45609e-04, 1.36303e-03
5.20299e+00, 5.72401e+00, 5.46350e+00, 3.27004e-04, 6.27617e-04
5.72401e+00, 6.29714e+00, 6.01058e+00, 1.57102e-04, 2.74113e-04
6.29714e+00, 6.92758e+00, 6.61236e+00, 7.30332e-05, 1.15845e-04
6.92758e+00, 7.62106e+00, 7.27432e+00, 3.22358e-05, 4.64839e-05
7.62106e+00, 8.38390e+00, 8.00248e+00, 9.97875e-06, 1.30812e-05
8.38390e+00, 9.22301e+00, 8.80345e+00, 0.00000e+00, 0.00000e+00
9.22301e+00, 1.01460e+01, 9.68453e+00, 0.00000e+00, 0.00000e+00
1.01460e+01, 1.11614e+01, 1.06537e+01, 0.00000e+00, 0.00000e+00
1.11614e+01, 1.22782e+01, 1.17198e+01, 0.00000e+00, 0.00000e+00
1.22782e+01, 1.35068e+01, 1.28925e+01, 3.38274e-09, 2.75345e-09
1.35068e+01, 1.48582e+01, 1.41825e+01, 5.74676e-09, 4.25244e-09
1.48582e+01, 1.63447e+01, 1.56015e+01, 1.59318e-09, 1.07173e-09
1.63447e+01, 1.79799e+01, 1.71623e+01, 2.38430e-10, 1.45811e-10
1.79799e+01, 1.97786e+01, 1.88793e+01, 2.30351e-11, 1.28064e-11
1.97786e+01, 2.17572e+01, 2.07679e+01, 1.68543e-12, 8.51833e-13
2.17572e+01, 2.39337e+01, 2.28455e+01, 8.20040e-14, 3.76779e-14
2.39337e+01, 2.63278e+01, 2.51307e+01, 2.26439e-15, 9.45821e-16
2.63278e+01, 2.89613e+01, 2.76445e+01, 2.57570e-17, 9.78049e-18
2.89613e+01, 3.18581e+01, 3.04097e+01, 8.68187e-20, 2.99700e-20
3.18581e+01, 3.50447e+01, 3.34514e+01, 6.79845e-38, 2.13349e-38
3.50447e+01, 3.85499e+01, 3.67973e+01, 6.63600e-38, 1.89319e-38
3.85499e+01, 4.24056e+01, 4.04777e+01, 6.28043e-38, 1.62886e-38
4.24056e+01, 4.66469e+01, 4.45262e+01, 5.67527e-38, 1.33810e-38
4.66469e+01, 5.13123e+01, 4.89796e+01, 4.75062e-38, 1.01826e-38
5.13123e+01, 5.64442e+01, 5.38783e+01, 3.42014e-38, 6.66440e-39
5.64442e+01, 6.20894e+01, 5.92668e+01, 1.57744e-38, 2.79434e-39
6.20894e+01, 6.82990e+01, 6.51942e+01, 0.00000e+00, 0.00000e+00
6.82990e+01, 7.51297e+01, 7.17144e+01, 0.00000e+00, 0.00000e+00
7.51297e+01, 8.26434e+01, 7.88865e+01, 0.00000e+00, 0.00000e+00
8.26434e+01, 9.09084e+01, 8.67759e+01, 0.00000e+00, 0.00000e+00
9.09084e+01, 1.00000e+02, 9.54542e+01, 2.44832e-42, 2.69295e-43
