# time = 8.000000000000000e-01# start, end, pivot, particles, density
0.00000e+00, 7.25710e-04, 3.62855e-04, 7.25447e-04, 9.99637e-01
7.25710e-04, 1.52399e-03, 1.12485e-03, 2.43333e-03, 3.04821e+00
1.52399e-03, 2.40210e-03, 1.96305e-03, 2.67230e-03, 3.04325e+00
2.40210e-03, 3.36802e-03, 2.88506e-03, 2.93438e-03, 3.03791e+00
3.36802e-03, 4.43053e-03, 3.89928e-03, 3.22186e-03, 3.03231e+00
4.43053e-03, 5.59929e-03, 5.01491e-03, 3.53681e-03, 3.02611e+00
5.59929e-03, 6.88493e-03, 6.24211e-03, 3.88113e-03, 3.01883e+00
6.88493e-03, 8.29914e-03, 7.59203e-03, 4.25837e-03, 3.01115e+00
8.29914e-03, 9.85476e-03, 9.07695e-03, 4.67192e-03, 3.00324e+00
9.85476e-03, 1.15659e-02, 1.07104e-02, 5.12218e-03, 2.99335e+00
1.15659e-02, 1.34482e-02, 1.25071e-02, 5.61660e-03, 2.98390e+00
1.34482e-02, 1.55188e-02, 1.44835e-02, 6.15455e-03, 2.97245e+00
1.55188e-02, 1.77964e-02, 1.66576e-02, 6.74361e-03, 2.96086e+00
1.77964e-02, 2.03017e-02, 1.90490e-02, 7.38238e-03, 2.94665e+00
2.03017e-02, 2.30576e-02, 2.16797e-02, 8.08359e-03, 2.93321e+00
2.30576e-02, 2.60891e-02, 2.45733e-02, 8.84160e-03, 2.91660e+00
2.60891e-02, 2.94237e-02, 2.77564e-02, 9.66808e-03, 2.89931e+00
2.94237e-02, 3.30918e-02, 3.12577e-02, 1.05661e-02, 2.88054e+00
3.30918e-02, 3.71267e-02, 3.51092e-02, 1.15388e-02, 2.85976e+00
3.71267e-02, 4.15650e-02, 3.93458e-02, 1.25894e-02, 2.83649e+00
4.15650e-02, 4.64472e-02, 4.40061e-02, 1.37311e-02, 2.81248e+00
4.64472e-02, 5.18177e-02, 4.91325e-02, 1.49588e-02, 2.78539e+00
5.18177e-02, 5.77252e-02, 5.47714e-02, 1.62781e-02, 2.75551e+00
5.77252e-02, 6.42234e-02, 6.09743e-02, 1.77017e-02, 2.72408e+00
6.42234e-02, 7.13714e-02, 6.77974e-02, 1.92191e-02, 2.68872e+00
7.13714e-02, 7.92343e-02, 7.53029e-02, 2.08494e-02, 2.65164e+00
7.92343e-02, 8.78834e-02, 8.35588e-02, 2.25762e-02, 2.61022e+00
8.78834e-02, 9.73975e-02, 9.26404e-02, 2.44166e-02, 2.56637e+00
9.73975e-02, 1.07863e-01, 1.02630e-01, 2.63579e-02, 2.51857e+00
1.07863e-01, 1.19375e-01, 1.13619e-01, 2.83934e-02, 2.46642e+00
1.19375e-01, 1.32038e-01, 1.25707e-01, 3.05271e-02, 2.41069e+00
1.32038e-01, 1.45968e-01, 1.39003e-01, 3.27450e-02, 2.35077e+00
1.45968e-01, 1.61290e-01, 1.53629e-01, 3.50476e-02, 2.28733e+00
1.61290e-01, 1.78145e-01, 1.69717e-01, 3.73944e-02, 2.21863e+00
1.78145e-01, 1.96685e-01, 1.87415e-01, 3.97724e-02, 2.14520e+00
1.96685e-01, 2.17079e-01, 2.06882e-01, 4.21717e-02, 2.06783e+00
2.17079e-01, 2.39513e-01, 2.28296e-01, 4.45464e-02, 1.98570e+00
2.39513e-01, 2.64190e-01, 2.51851e-01, 4.68511e-02, 1.89857e+00
2.64190e-01, 2.91335e-01, 2.77762e-01, 4.90634e-02, 1.80748e+00
2.91335e-01, 3.21194e-01, 3.06264e-01, 5.11187e-02, 1.71199e+00
3.21194e-01, 3.54039e-01, 3.37616e-01, 5.29701e-02, 1.61272e+00
3.54039e-01, 3.90168e-01, 3.72104e-01, 5.45539e-02, 1.50995e+00
3.90168e-01, 4.29911e-01, 4.10040e-01, 5.58116e-02, 1.40433e+00
4.29911e-01, 4.73628e-01, 4.51769e-01, 5.66800e-02, 1.29653e+00
4.73628e-01, 5.21716e-01, 4.97672e-01, 5.70979e-02, 1.18735e+00
5.21716e-01, 5.74614e-01, 5.48165e-01, 5.69953e-02, 1.07747e+00
5.74614e-01, 6.32801e-01, 6.03707e-01, 5.63355e-02, 9.68180e-01
6.32801e-01, 6.96806e-01, 6.64804e-01, 5.50791e-02, 8.60533e-01
6.96806e-01, 7.67213e-01, 7.32010e-01, 5.31999e-02, 7.55612e-01
7.67213e-01, 8.44660e-01, 8.05936e-01, 5.07045e-02, 6.54699e-01
8.44660e-01, 9.29852e-01, 8.87256e-01, 4.76197e-02, 5.58972e-01
9.29852e-01, 1.02356e+00, 9.76707e-01, 4.40013e-02, 4.69543e-01
1.02356e+00, 1.12664e+00, 1.07510e+00, 3.99385e-02, 3.87444e-01
1.12664e+00, 1.24003e+00, 1.18334e+00, 3.55366e-02, 3.13401e-01
1.24003e+00, 1.36476e+00, 1.30240e+00, 3.09345e-02, 2.48014e-01
1.36476e+00, 1.50197e+00, 1.43336e+00, 2.62911e-02, 1.91623e-01
1.50197e+00, 1.65289e+00, 1.57743e+00, 2.17612e-02, 1.44188e-01
1.65289e+00, 1.81890e+00, 1.73590e+00, 1.74953e-02, 1.05384e-01
1.81890e+00, 2.00152e+00, 1.91021e+00, 1.36235e-02, 7.46018e-02
2.00152e+00, 2.20240e+00, 2.10196e+00, 1.02434e-02, 5.09932e-02
2.20240e+00, 2.42336e+00, 2.31288e+00, 7.41213e-03, 3.35443e-02
2.42336e+00, 2.66642e+00, 2.54489e+00, 5.14308e-03, 2.11595e-02
2.66642e+00, 2.93379e+00, 2.80011e+00, 3.40869e-03, 1.27491e-02
2.93379e+00, 3.22790e+00, 3.08084e+00, 2.14877e-03, 7.30612e-03
3.22790e+00, 3.55141e+00, 3.38965e+00, 1.28236e-03, 3.96384e-03
3.55141e+00, 3.90728e+00, 3.72934e+00, 7.20899e-04, 2.02575e-03
3.90728e+00, 4.29873e+00, 4.10301e+00, 3.79735e-04, 9.70064e-04
4.29873e+00, 4.72933e+00, 4.51403e+00, 1.86420e-04, 4.32932e-04
4.72933e+00, 5.20299e+00, 4.96616e+00, 8.48743e-05, 1.79189e-04
5.20299e+00, 5.72401e+00, 5.46350e+00, 3.57149e-05, 6.85474e-05
5.72401e+00, 6.29714e+00, 6.01058e+00, 1.45813e-05, 2.54417e-05
6.29714e+00, 6.92758e+00, 6.61236e+00, 5.80225e-06, 9.20349e-06
6.92758e+00, 7.62106e+00, 7.27432e+00, 2.13714e-06, 3.08174e-06
7.62106e+00, 8.38390e+00, 8.00248e+00, 7.27109e-07, 9.53171e-07
8.38390e+00, 9.22301e+00, 8.80345e+00, 2.27925e-07, 2.71625e-07
9.22301e+00, 1.01460e+01, 9.68453e+00, 6.56610e-08, 7.11366e-08
1.01460e+01, 1.11614e+01, 1.06537e+01, 1.73308e-08, 1.70691e-08
1.11614e+01, 1.22782e+01, 1.17198e+01, 4.17931e-09, 3.74201e-09
1.22782e+01, 1.35068e+01, 1.28925e+01, 9.19214e-10, 7.48211e-10
1.35068e+01, 1.48582e+01, 1.41825e+01, 1.84615e-10, 1.36610e-10
1.48582e+01, 1.63447e+01, 1.56015e+01, 3.40436e-11, 2.29012e-11
1.63447e+01, 1.79799e+01, 1.71623e+01, 5.81146e-12, 3.55398e-12
1.79799e+01, 1.97786e+01, 1.88793e+01, 9.23692e-13, 5.13528e-13
1.97786e+01, 2.17572e+01, 2.07679e+01, 1.37078e-13, 6.92805e-14
2.17572e+01, 2.39337e+01, 2.28455e+01, 1.94787e-14, 8.94978e-15
2.39337e+01, 2.63278e+01, 2.51307e+01, 2.86416e-15, 1.19635e-15
2.63278e+01, 2.89613e+01, 2.76445e+01, 4.61625e-16, 1.75289e-16
2.89613e+01, 3.18581e+01, 3.04097e+01, 7.65544e-17, 2.64267e-17
3.18581e+01, 3.50447e+01, 3.34514e+01, 1.17246e-17, 3.67941e-18
3.50447e+01, 3.85499e+01, 3.67973e+01, 1.54601e-18, 4.41064e-19
3.85499e+01, 4.24056e+01, 4.04777e+01, 1.71190e-19, 4.43991e-20
4.24056e+01, 4.66469e+01, 4.45262e+01, 1.56394e-20, 3.68742e-21
4.66469e+01, 5.13123e+01, 4.89796e+01, 1.16212e-21, 2.49093e-22
5.13123e+01, 5.64442e+01, 5.38783e+01, 6.93386e-23, 1.35111e-23
5.64442e+01, 6.20894e+01, 5.92668e+01, 3.25202e-24, 5.76073e-25
6.20894e+01, 6.82990e+01, 6.51942e+01, 1.17376e-25, 1.89022e-26
6.82990e+01, 7.51297e+01, 7.17144e+01, 3.19218e-27, 4.67334e-28
7.51297e+01, 8.26434e+01, 7.88865e+01, 6.37077e-29, 8.47889e-30
8.26434e+01, 9.09084e+01, 8.67759e+01, 9.05206e-31, 1.09522e-31
9.09084e+01, 1.00000e+02, 9.54542e+01, 3.71966e-44, 4.09133e-45
