# time = 1.300000000000000e+00# start, end, pivot, particles, density
0.00000e+00, 7.25710e-05, 3.62855e-05, 1.82732e-04, 2.51798e+00
7.25710e-05, 1.52399e-04, 1.12485e-04, 2.01005e-04, 2.51798e+00
1.52399e-04, 2.40210e-04, 1.96305e-04, 2.21106e-04, 2.51798e+00
2.40210e-04, 3.36802e-04, 2.88506e-04, 2.43216e-04, 2.51798e+00
3.36802e-04, 4.43053e-04, 3.89928e-04, 2.67538e-04, 2.51798e+00
4.43053e-04, 5.59929e-04, 5.01491e-04, 2.94292e-04, 2.51798e+00
5.59929e-04, 6.88493e-04, 6.24211e-04, 3.23721e-04, 2.51798e+00
6.88493e-04, 8.29914e-04, 7.59203e-04, 3.56093e-04, 2.51798e+00
8.29914e-04, 9.85476e-04, 9.07695e-04, 3.91702e-04, 2.51797e+00
9.85476e-04, 1.15659e-03, 1.07104e-03, 4.30872e-04, 2.51797e+00
1.15659e-03, 1.34482e-03, 1.25071e-03, 4.73959e-04, 2.51797e+00
1.34482e-03, 1.55188e-03, 1.44835e-03, 5.21355e-04, 2.51797e+00
1.55188e-03, 1.77964e-03, 1.66576e-03, 5.73490e-04, 2.51797e+00
1.77964e-03, 2.03017e-03, 1.90490e-03, 6.30838e-04, 2.51797e+00
2.03017e-03, 2.30576e-03, 2.16797e-03, 6.93921e-04, 2.51796e+00
2.30576e-03, 2.60891e-03, 2.45733e-03, 7.63312e-04, 2.51796e+00
2.60891e-03, 2.94237e-03, 2.77564e-03, 8.39641e-04, 2.51795e+00
2.94237e-03, 3.30918e-03, 3.12577e-03, 9.23603e-04, 2.51795e+00
3.30918e-03, 3.71267e-03, 3.51092e-03, 1.01596e-03, 2.51794e+00
3.71267e-03, 4.15650e-03, 3.93458e-03, 1.11755e-03, 2.51793e+00
4.15650e-03, 4.64472e-03, 4.40061e-03, 1.22930e-03, 2.51792e+00
4.64472e-03, 5.18177e-03, 4.91325e-03, 1.35222e-03, 2.51790e+00
5.18177e-03, 5.77252e-03, 5.47714e-03, 1.48744e-03, 2.51789e+00
5.77252e-03, 6.42234e-03, 6.09743e-03, 1.63617e-03, 2.51786e+00
6.42234e-03, 7.13714e-03, 6.77974e-03, 1.79976e-03, 2.51784e+00
7.13714e-03, 7.92343e-03, 7.53029e-03, 1.97971e-03, 2.51781e+00
7.92343e-03, 8.78834e-03, 8.35588e-03, 2.17765e-03, 2.51777e+00
8.78834e-03, 9.73975e-03, 9.26404e-03, 2.39537e-03, 2.51772e+00
9.73975e-03, 1.07863e-02, 1.02630e-02, 2.63485e-03, 2.51766e+00
1.07863e-02, 1.19375e-02, 1.13619e-02, 2.89825e-03, 2.51759e+00
1.19375e-02, 1.32038e-02, 1.25707e-02, 3.18796e-03, 2.51750e+00
1.32038e-02, 1.45968e-02, 1.39003e-02, 3.50661e-03, 2.51739e+00
1.45968e-02, 1.61290e-02, 1.53629e-02, 3.85707e-03, 2.51727e+00
1.61290e-02, 1.78145e-02, 1.69717e-02, 4.24252e-03, 2.51711e+00
1.78145e-02, 1.96685e-02, 1.87415e-02, 4.66642e-03, 2.51692e+00
1.96685e-02, 2.17079e-02, 2.06882e-02, 5.13259e-03, 2.51669e+00
2.17079e-02, 2.39513e-02, 2.28296e-02, 5.64522e-03, 2.51641e+00
2.39513e-02, 2.64190e-02, 2.51851e-02, 6.20890e-03, 2.51607e+00
2.64190e-02, 2.91335e-02, 2.77762e-02, 6.82867e-03, 2.51565e+00
2.91335e-02, 3.21194e-02, 3.06264e-02, 7.51004e-03, 2.51515e+00
3.21194e-02, 3.54039e-02, 3.37616e-02, 8.25905e-03, 2.51455e+00
3.54039e-02, 3.90168e-02, 3.72104e-02, 9.08229e-03, 2.51381e+00
3.90168e-02, 4.29911e-02, 4.10040e-02, 9.98697e-03, 2.51292e+00
4.29911e-02, 4.73628e-02, 4.51769e-02, 1.09809e-02, 2.51184e+00
4.73628e-02, 5.21716e-02, 4.97672e-02, 1.20727e-02, 2.51053e+00
5.21716e-02, 5.74614e-02, 5.48165e-02, 1.32716e-02, 2.50894e+00
5.74614e-02, 6.32801e-02, 6.03707e-02, 1.45876e-02, 2.50702e+00
6.32801e-02, 6.96806e-02, 6.64804e-02, 1.60315e-02, 2.50470e+00
6.96806e-02, 7.67213e-02, 7.32010e-02, 1.76148e-02, 2.50188e+00
7.67213e-02, 8.44660e-02, 8.05936e-02, 1.93500e-02, 2.49848e+00
8.44660e-02, 9.29852e-02, 8.87256e-02, 2.12499e-02, 2.49436e+00
9.29852e-02, 1.02356e-01, 9.76707e-02, 2.33283e-02, 2.48939e+00
1.02356e-01, 1.12664e-01, 1.07510e-01, 2.55991e-02, 2.48338e+00
1.12664e-01, 1.24003e-01, 1.18334e-01, 2.80767e-02, 2.47611e+00
1.24003e-01, 1.36476e-01, 1.30240e-01, 3.07750e-02, 2.46735e+00
1.36476e-01, 1.50197e-01, 1.43336e-01, 3.37075e-02, 2.45677e+00
1.50197e-01, 1.65289e-01, 1.57743e-01, 3.68858e-02, 2.44403e+00
1.65289e-01, 1.81890e-01, 1.73590e-01, 4.03196e-02, 2.42868e+00
1.81890e-01, 2.00152e-01, 1.91021e-01, 4.40145e-02, 2.41022e+00
2.00152e-01, 2.20240e-01, 2.10196e-01, 4.79705e-02, 2.38805e+00
2.20240e-01, 2.42336e-01, 2.31288e-01, 5.21800e-02, 2.36146e+00
2.42336e-01, 2.66642e-01, 2.54489e-01, 5.66245e-02, 2.32963e+00
2.66642e-01, 2.93379e-01, 2.80011e-01, 6.12712e-02, 2.29164e+00
2.93379e-01, 3.22790e-01, 3.08084e-01, 6.60683e-02, 2.24642e+00
3.22790e-01, 3.55141e-01, 3.38965e-01, 7.09397e-02, 2.19278e+00
3.55141e-01, 3.90728e-01, 3.72934e-01, 7.57792e-02, 2.12943e+00
3.90728e-01, 4.29873e-01, 4.10301e-01, 8.04434e-02, 2.05499e+00
4.29873e-01, 4.72933e-01, 4.51403e-01, 8.47460e-02, 1.96810e+00
4.72933e-01, 5.20299e-01, 4.96616e-01, 8.84525e-02, 1.86743e+00
5.20299e-01, 5.72401e-01, 5.46350e-01, 9.12789e-02, 1.75191e+00
5.72401e-01, 6.29714e-01, 6.01058e-01, 9.28959e-02, 1.62086e+00
6.29714e-01, 6.92758e-01, 6.61236e-01, 9.29442e-02, 1.47427e+00
6.92758e-01, 7.62106e-01, 7.27432e-01, 9.10643e-02, 1.31314e+00
7.62106e-01, 8.38390e-01, 8.00248e-01, 8.70698e-02, 1.14140e+00
8.38390e-01, 9.22301e-01, 8.80345e-01, 8.94475e-02, 1.06597e+00
9.22301e-01, 1.01460e+00, 9.68453e-01, 3.05444e-01, 3.30916e+00
1.01460e+00, 1.11614e+00, 1.06537e+00, 3.68564e-96, 3.62999e-95
1.11614e+00, 1.22782e+00, 1.17198e+00, 0.00000e+00, 0.00000e+00
1.22782e+00, 1.35068e+00, 1.28925e+00, 0.00000e+00, 0.00000e+00
1.35068e+00, 1.48582e+00, 1.41825e+00, 0.00000e+00, 0.00000e+00
1.48582e+00, 1.63447e+00, 1.56015e+00, 0.00000e+00, 0.00000e+00
1.63447e+00, 1.79799e+00, 1.71623e+00, 0.00000e+00, 0.00000e+00
1.79799e+00, 1.97786e+00, 1.88793e+00, 0.00000e+00, 0.00000e+00
1.97786e+00, 2.17572e+00, 2.07679e+00, 0.00000e+00, 0.00000e+00
2.17572e+00, 2.39337e+00, 2.28455e+00, 0.00000e+00, 0.00000e+00
2.39337e+00, 2.63278e+00, 2.51307e+00, 0.00000e+00, 0.00000e+00
2.63278e+00, 2.89613e+00, 2.76445e+00, 0.00000e+00, 0.00000e+00
2.89613e+00, 3.18581e+00, 3.04097e+00, 0.00000e+00, 0.00000e+00
3.18581e+00, 3.50447e+00, 3.34514e+00, 0.00000e+00, 0.00000e+00
3.50447e+00, 3.85499e+00, 3.67973e+00, 0.00000e+00, 0.00000e+00
3.85499e+00, 4.24056e+00, 4.04777e+00, 0.00000e+00, 0.00000e+00
4.24056e+00, 4.66469e+00, 4.45262e+00, 0.00000e+00, 0.00000e+00
4.66469e+00, 5.13123e+00, 4.89796e+00, 0.00000e+00, 0.00000e+00
5.13123e+00, 5.64442e+00, 5.38783e+00, 0.00000e+00, 0.00000e+00
5.64442e+00, 6.20894e+00, 5.92668e+00, 0.00000e+00, 0.00000e+00
6.20894e+00, 6.82990e+00, 6.51942e+00, 0.00000e+00, 0.00000e+00
6.82990e+00, 7.51297e+00, 7.17144e+00, 0.00000e+00, 0.00000e+00
7.51297e+00, 8.26434e+00, 7.88865e+00, 0.00000e+00, 0.00000e+00
8.26434e+00, 9.09084e+00, 8.67759e+00, 0.00000e+00, 0.00000e+00
9.09084e+00, 1.00000e+01, 9.54542e+00, 0.00000e+00, 0.00000e+00
