# time = 3.200000000000000e-01# start, end, pivot, particles, density
0.00000e+00, 4.82987e-08, 2.41493e-08, 2.10819e-31, 4.36490e-24
4.82987e-08, 1.06257e-07, 7.72779e-08, 4.20042e-30, 7.24730e-23
1.06257e-07, 1.75807e-07, 1.41032e-07, 2.64266e-29, 3.79965e-22
1.75807e-07, 2.59267e-07, 2.17537e-07, 1.08825e-28, 1.30392e-21
2.59267e-07, 3.59420e-07, 3.09343e-07, 3.61445e-28, 3.60896e-21
3.59420e-07, 4.79602e-07, 4.19511e-07, 1.05568e-27, 8.78396e-21
4.79602e-07, 6.23821e-07, 5.51712e-07, 2.83373e-27, 1.96488e-20
6.23821e-07, 7.96884e-07, 7.10353e-07, 7.17150e-27, 4.14387e-20
7.96884e-07, 1.00456e-06, 9.00722e-07, 1.73888e-26, 8.37307e-20
1.00456e-06, 1.25377e-06, 1.12917e-06, 4.08326e-26, 1.63848e-19
1.25377e-06, 1.55282e-06, 1.40330e-06, 9.35585e-26, 3.12850e-19
1.55282e-06, 1.91169e-06, 1.73225e-06, 2.10309e-25, 5.86043e-19
1.91169e-06, 2.34232e-06, 2.12700e-06, 4.65678e-25, 1.08137e-18
2.34232e-06, 2.85909e-06, 2.60070e-06, 1.01881e-24, 1.97152e-18
2.85909e-06, 3.47920e-06, 3.16914e-06, 2.20752e-24, 3.55985e-18
3.47920e-06, 4.22334e-06, 3.85127e-06, 4.74596e-24, 6.37778e-18
4.22334e-06, 5.11631e-06, 4.66982e-06, 1.01387e-23, 1.13540e-17
5.11631e-06, 6.18787e-06, 5.65209e-06, 2.15471e-23, 2.01082e-17
6.18787e-06, 7.47374e-06, 6.83080e-06, 4.55983e-23, 3.54610e-17
7.47374e-06, 9.01679e-06, 8.24526e-06, 9.61590e-23, 6.23176e-17
9.01679e-06, 1.08684e-05, 9.94261e-06, 2.02199e-22, 1.09199e-16
1.08684e-05, 1.30904e-05, 1.19794e-05, 4.24167e-22, 1.90896e-16
1.30904e-05, 1.57568e-05, 1.44236e-05, 8.88057e-22, 3.33057e-16
1.57568e-05, 1.89565e-05, 1.73566e-05, 1.85625e-21, 5.80140e-16
1.89565e-05, 2.27961e-05, 2.08763e-05, 3.87478e-21, 1.00917e-15
2.27961e-05, 2.74036e-05, 2.50998e-05, 8.07926e-21, 1.75350e-15
2.74036e-05, 3.29326e-05, 3.01681e-05, 1.68303e-20, 3.04399e-15
3.29326e-05, 3.95674e-05, 3.62500e-05, 3.50329e-20, 5.28016e-15
3.95674e-05, 4.75292e-05, 4.35483e-05, 7.28755e-20, 9.15316e-15
4.75292e-05, 5.70833e-05, 5.23063e-05, 1.51515e-19, 1.58585e-14
5.70833e-05, 6.85483e-05, 6.28158e-05, 3.14872e-19, 2.74639e-14
6.85483e-05, 8.23063e-05, 7.54273e-05, 6.54113e-19, 4.75443e-14
8.23063e-05, 9.88158e-05, 9.05610e-05, 1.35843e-18, 8.22813e-14
9.88158e-05, 1.18627e-04, 1.08722e-04, 2.82038e-18, 1.42361e-13
1.18627e-04, 1.42401e-04, 1.30514e-04, 5.85444e-18, 2.46257e-13
1.42401e-04, 1.70930e-04, 1.56665e-04, 1.21502e-17, 4.25898e-13
1.70930e-04, 2.05164e-04, 1.88047e-04, 2.52126e-17, 7.36473e-13
2.05164e-04, 2.46245e-04, 2.25704e-04, 5.23110e-17, 1.27336e-12
2.46245e-04, 2.95542e-04, 2.70893e-04, 1.08523e-16, 2.20140e-12
2.95542e-04, 3.54699e-04, 3.25120e-04, 2.25118e-16, 3.80545e-12
3.54699e-04, 4.25687e-04, 3.90193e-04, 4.66942e-16, 6.57775e-12
4.25687e-04, 5.10872e-04, 4.68280e-04, 9.68466e-16, 1.13689e-11
5.10872e-04, 6.13095e-04, 5.61984e-04, 2.00853e-15, 1.96485e-11
6.13095e-04, 7.35763e-04, 6.74429e-04, 4.16530e-15, 3.39560e-11
7.35763e-04, 8.82963e-04, 8.09363e-04, 8.63754e-15, 5.86786e-11
8.82963e-04, 1.05960e-03, 9.71284e-04, 1.79106e-14, 1.01396e-10
1.05960e-03, 1.27157e-03, 1.16559e-03, 3.71371e-14, 1.75200e-10
1.27157e-03, 1.52594e-03, 1.39876e-03, 7.69981e-14, 3.02710e-10
1.52594e-03, 1.83117e-03, 1.67855e-03, 1.59634e-13, 5.22987e-10
1.83117e-03, 2.19745e-03, 2.01431e-03, 3.30935e-13, 9.03497e-10
2.19745e-03, 2.63699e-03, 2.41722e-03, 6.86006e-13, 1.56074e-09
2.63699e-03, 3.16444e-03, 2.90072e-03, 1.42192e-12, 2.69585e-09
3.16444e-03, 3.79738e-03, 3.48091e-03, 2.94700e-12, 4.65607e-09
3.79738e-03, 4.55690e-03, 4.17714e-03, 6.10708e-12, 8.04066e-09
4.55690e-03, 5.46833e-03, 5.01262e-03, 1.26540e-11, 1.38837e-08
5.46833e-03, 6.56204e-03, 6.01519e-03, 2.62151e-11, 2.39689e-08
6.56204e-03, 7.87450e-03, 7.21827e-03, 5.42989e-11, 4.13720e-08
7.87450e-03, 9.44945e-03, 8.66198e-03, 1.12443e-10, 7.13945e-08
9.44945e-03, 1.13394e-02, 1.03944e-02, 2.32783e-10, 1.23170e-07
1.13394e-02, 1.36073e-02, 1.24734e-02, 4.81757e-10, 2.12422e-07
1.36073e-02, 1.63288e-02, 1.49681e-02, 9.96630e-10, 3.66205e-07
1.63288e-02, 1.95946e-02, 1.79617e-02, 2.06079e-09, 6.31020e-07
1.95946e-02, 2.35136e-02, 2.15541e-02, 4.25882e-09, 1.08672e-06
2.35136e-02, 2.82164e-02, 2.58650e-02, 8.79526e-09, 1.87023e-06
2.82164e-02, 3.38597e-02, 3.10381e-02, 1.81491e-08, 3.21602e-06
3.38597e-02, 4.06317e-02, 3.72457e-02, 3.74141e-08, 5.52483e-06
4.06317e-02, 4.87581e-02, 4.46949e-02, 7.70385e-08, 9.48004e-06
4.87581e-02, 5.85098e-02, 5.36339e-02, 1.58405e-07, 1.62439e-05
5.85098e-02, 7.02118e-02, 6.43608e-02, 3.25161e-07, 2.77868e-05
7.02118e-02, 8.42542e-02, 7.72330e-02, 6.66113e-07, 4.74359e-05
8.42542e-02, 1.01105e-01, 9.26796e-02, 1.36127e-06, 8.07833e-05
1.01105e-01, 1.21326e-01, 1.11216e-01, 2.77380e-06, 1.37174e-04
1.21326e-01, 1.45591e-01, 1.33459e-01, 5.63237e-06, 2.32116e-04
1.45591e-01, 1.74710e-01, 1.60151e-01, 1.13891e-05, 3.91130e-04
1.74710e-01, 2.09652e-01, 1.92181e-01, 2.29141e-05, 6.55776e-04
2.09652e-01, 2.51582e-01, 2.30617e-01, 4.58252e-05, 1.09289e-03
2.51582e-01, 3.01899e-01, 2.76740e-01, 9.09852e-05, 1.80826e-03
3.01899e-01, 3.62278e-01, 3.32088e-01, 1.79094e-04, 2.96612e-03
3.62278e-01, 4.34734e-01, 3.98506e-01, 3.48891e-04, 4.81523e-03
4.34734e-01, 5.21681e-01, 4.78207e-01, 6.71284e-04, 7.72062e-03
5.21681e-01, 6.26017e-01, 5.73849e-01, 1.27253e-03, 1.21964e-02
6.26017e-01, 7.51221e-01, 6.88619e-01, 2.36975e-03, 1.89272e-02
7.51221e-01, 9.01465e-01, 8.26343e-01, 4.32013e-03, 2.87540e-02
9.01465e-01, 1.08176e+00, 9.91611e-01, 7.67796e-03, 4.25860e-02
1.08176e+00, 1.29811e+00, 1.18993e+00, 1.32375e-02, 6.11852e-02
1.29811e+00, 1.55773e+00, 1.42792e+00, 2.20109e-02, 8.47805e-02
1.55773e+00, 1.86928e+00, 1.71350e+00, 3.50537e-02, 1.12515e-01
1.86928e+00, 2.24313e+00, 2.05621e+00, 5.30350e-02, 1.41860e-01
2.24313e+00, 2.69176e+00, 2.46745e+00, 7.55063e-02, 1.68305e-01
2.69176e+00, 3.23011e+00, 2.96094e+00, 1.00044e-01, 1.85833e-01
3.23011e+00, 3.87613e+00, 3.55312e+00, 1.21802e-01, 1.88541e-01
3.87613e+00, 4.65136e+00, 4.26375e+00, 1.34310e-01, 1.73253e-01
4.65136e+00, 5.58163e+00, 5.11650e+00, 1.32008e-01, 1.41902e-01
5.58163e+00, 6.69796e+00, 6.13980e+00, 1.13665e-01, 1.01821e-01
6.69796e+00, 8.03755e+00, 7.36776e+00, 8.42303e-02, 6.28776e-02
8.03755e+00, 9.64506e+00, 8.84131e+00, 5.28053e-02, 3.28491e-02
9.64506e+00, 1.15741e+01, 1.06096e+01, 2.75939e-02, 1.43047e-02
1.15741e+01, 1.38889e+01, 1.27315e+01, 1.18912e-02, 5.13698e-03
1.38889e+01, 1.66667e+01, 1.52778e+01, 4.20396e-03, 1.51343e-03
1.66667e+01, 2.00000e+01, 1.83333e+01, 9.31731e-04, 2.79519e-04
