# start, end, pivot, particles, density
0.00000e+00, 4.82987e-08, 2.41493e-08, 2.26741e-31, 4.69456e-24
4.82987e-08, 1.06257e-07, 7.72779e-08, 5.08481e-30, 8.77319e-23
1.06257e-07, 1.75807e-07, 1.41032e-07, 3.44933e-29, 4.95949e-22
1.75807e-07, 2.59267e-07, 2.17537e-07, 1.48465e-28, 1.77887e-21
2.59267e-07, 3.59420e-07, 3.09343e-07, 5.07068e-28, 5.06297e-21
3.59420e-07, 4.79602e-07, 4.19511e-07, 1.50918e-27, 1.25574e-20
4.79602e-07, 6.23821e-07, 5.51712e-07, 4.10548e-27, 2.84670e-20
6.23821e-07, 7.96884e-07, 7.10353e-07, 1.04923e-26, 6.06272e-20
7.96884e-07, 1.00456e-06, 9.00722e-07, 2.56295e-26, 1.23411e-19
1.00456e-06, 1.25377e-06, 1.12917e-06, 6.05263e-26, 2.42872e-19
1.25377e-06, 1.55282e-06, 1.40330e-06, 1.39299e-25, 4.65800e-19
1.55282e-06, 1.91169e-06, 1.73225e-06, 3.14230e-25, 8.75625e-19
1.91169e-06, 2.34232e-06, 2.12700e-06, 6.97736e-25, 1.62025e-18
2.34232e-06, 2.85909e-06, 2.60070e-06, 1.52995e-24, 2.96064e-18
2.85909e-06, 3.47920e-06, 3.16914e-06, 3.32111e-24, 5.35563e-18
3.47920e-06, 4.22334e-06, 3.85127e-06, 7.15069e-24, 9.60935e-18
4.22334e-06, 5.11631e-06, 4.66982e-06, 1.52945e-23, 1.71277e-17
5.11631e-06, 6.18787e-06, 5.65209e-06, 3.25368e-23, 3.03639e-17
6.18787e-06, 7.47374e-06, 6.83080e-06, 6.89112e-23, 5.35910e-17
7.47374e-06, 9.01679e-06, 8.24526e-06, 1.45420e-22, 9.42420e-17
9.01679e-06, 1.08684e-05, 9.94261e-06, 3.05954e-22, 1.65233e-16
1.08684e-05, 1.30904e-05, 1.19794e-05, 6.42116e-22, 2.88983e-16
1.30904e-05, 1.57568e-05, 1.44236e-05, 1.34488e-21, 5.04383e-16
1.57568e-05, 1.89565e-05, 1.73566e-05, 2.81201e-21, 8.78846e-16
1.89565e-05, 2.27961e-05, 2.08763e-05, 5.87139e-21, 1.52917e-15
2.27961e-05, 2.74036e-05, 2.50998e-05, 1.22450e-20, 2.65762e-15
2.74036e-05, 3.29326e-05, 3.01681e-05, 2.55128e-20, 4.61435e-15
3.29326e-05, 3.95674e-05, 3.62500e-05, 5.31139e-20, 8.00533e-15
3.95674e-05, 4.75292e-05, 4.35483e-05, 1.10501e-19, 1.38790e-14
4.75292e-05, 5.70833e-05, 5.23063e-05, 2.29766e-19, 2.40489e-14
5.70833e-05, 6.85483e-05, 6.28158e-05, 4.77533e-19, 4.16515e-14
6.85483e-05, 8.23063e-05, 7.54273e-05, 9.92093e-19, 7.21105e-14
8.23063e-05, 9.88158e-05, 9.05610e-05, 2.06045e-18, 1.24803e-13
9.88158e-05, 1.18627e-04, 1.08722e-04, 4.27814e-18, 2.15943e-13
1.18627e-04, 1.42401e-04, 1.30514e-04, 8.88075e-18, 3.73553e-13
1.42401e-04, 1.70930e-04, 1.56665e-04, 1.84316e-17, 6.46076e-13
1.70930e-04, 2.05164e-04, 1.88047e-04, 3.82478e-17, 1.11724e-12
2.05164e-04, 2.46245e-04, 2.25704e-04, 7.93584e-17, 1.93175e-12
2.46245e-04, 2.95542e-04, 2.70893e-04, 1.64638e-16, 3.33969e-12
2.95542e-04, 3.54699e-04, 3.25120e-04, 3.41525e-16, 5.77323e-12
3.54699e-04, 4.25687e-04, 3.90193e-04, 7.08402e-16, 9.97917e-12
4.25687e-04, 5.10872e-04, 4.68280e-04, 1.46928e-15, 1.72480e-11
5.10872e-04, 6.13095e-04, 5.61984e-04, 3.04719e-15, 2.98093e-11
6.13095e-04, 7.35763e-04, 6.74429e-04, 6.31929e-15, 5.15156e-11
7.35763e-04, 8.82963e-04, 8.09363e-04, 1.31042e-14, 8.90227e-11
8.82963e-04, 1.05960e-03, 9.71284e-04, 2.71725e-14, 1.53829e-10
1.05960e-03, 1.27157e-03, 1.16559e-03, 5.63408e-14, 2.65797e-10
1.27157e-03, 1.52594e-03, 1.39876e-03, 1.16813e-13, 4.59237e-10
1.52594e-03, 1.83117e-03, 1.67855e-03, 2.42176e-13, 7.93406e-10
1.83117e-03, 2.19745e-03, 2.01431e-03, 5.02042e-13, 1.37064e-09
2.19745e-03, 2.63699e-03, 2.41722e-03, 1.04067e-12, 2.36764e-09
2.63699e-03, 3.16444e-03, 2.90072e-03, 2.15699e-12, 4.08950e-09
3.16444e-03, 3.79738e-03, 3.48091e-03, 4.47031e-12, 7.06281e-09
3.79738e-03, 4.55690e-03, 4.17714e-03, 9.26346e-12, 1.21964e-08
4.55690e-03, 5.46833e-03, 5.01262e-03, 1.91931e-11, 2.10582e-08
5.46833e-03, 6.56204e-03, 6.01519e-03, 3.97595e-11, 3.63527e-08
6.56204e-03, 7.87450e-03, 7.21827e-03, 8.23470e-11, 6.27427e-08
7.87450e-03, 9.44945e-03, 8.66198e-03, 1.70509e-10, 1.08263e-07
9.44945e-03, 1.13394e-02, 1.03944e-02, 3.52956e-10, 1.86755e-07
1.13394e-02, 1.36073e-02, 1.24734e-02, 7.30366e-10, 3.22041e-07
1.36073e-02, 1.63288e-02, 1.49681e-02, 1.51070e-09, 5.55095e-07
1.63288e-02, 1.95946e-02, 1.79617e-02, 3.12316e-09, 9.56321e-07
1.95946e-02, 2.35136e-02, 2.15541e-02, 6.45283e-09, 1.64656e-06
2.35136e-02, 2.82164e-02, 2.58650e-02, 1.33226e-08, 2.83293e-06
2.82164e-02, 3.38597e-02, 3.10381e-02, 2.74822e-08, 4.86986e-06
3.38597e-02, 4.06317e-02, 3.72457e-02, 5.66319e-08, 8.36266e-06
4.06317e-02, 4.87581e-02, 4.46949e-02, 1.16554e-07, 1.43426e-05
4.87581e-02, 5.85098e-02, 5.36339e-02, 2.39518e-07, 2.45618e-05
5.85098e-02, 7.02118e-02, 6.43608e-02, 4.91324e-07, 4.19864e-05
7.02118e-02, 8.42542e-02, 7.72330e-02, 1.00568e-06, 7.16172e-05
8.42542e-02, 1.01105e-01, 9.26796e-02, 2.05316e-06, 1.21843e-04
1.01105e-01, 1.21326e-01, 1.11216e-01, 4.17863e-06, 2.06648e-04
1.21326e-01, 1.45591e-01, 1.33459e-01, 8.47273e-06, 3.49171e-04
1.45591e-01, 1.74710e-01, 1.60151e-01, 1.71028e-05, 5.87354e-04
1.74710e-01, 2.09652e-01, 1.92181e-01, 3.43379e-05, 9.82711e-04
2.09652e-01, 2.51582e-01, 2.30617e-01, 6.84981e-05, 1.63362e-03
2.51582e-01, 3.01899e-01, 2.76740e-01, 1.35588e-04, 2.69471e-03
3.01899e-01, 3.62278e-01, 3.32088e-01, 2.65909e-04, 4.40394e-03
3.62278e-01, 4.34734e-01, 3.98506e-01, 5.15708e-04, 7.11757e-03
4.34734e-01, 5.21681e-01, 4.78207e-01, 9.86899e-04, 1.13506e-02
5.21681e-01, 6.26017e-01, 5.73849e-01, 1.85857e-03, 1.78133e-02
6.26017e-01, 7.51221e-01, 6.88619e-01, 3.43350e-03, 2.74233e-02
7.51221e-01, 9.01465e-01, 8.26343e-01, 6.19842e-03, 4.12556e-02
9.01465e-01, 1.08176e+00, 9.91611e-01, 1.08848e-02, 6.03726e-02
1.08176e+00, 1.29811e+00, 1.18993e+00, 1.84911e-02, 8.54676e-02
1.29811e+00, 1.55773e+00, 1.42792e+00, 3.01891e-02, 1.16281e-01
1.55773e+00, 1.86928e+00, 1.71350e+00, 4.69958e-02, 1.50847e-01
1.86928e+00, 2.24313e+00, 2.05621e+00, 6.91025e-02, 1.84837e-01
2.24313e+00, 2.69176e+00, 2.46745e+00, 9.48975e-02, 2.11529e-01
2.69176e+00, 3.23011e+00, 2.96094e+00, 1.20085e-01, 2.23061e-01
3.23011e+00, 3.87613e+00, 3.55312e+00, 1.37787e-01, 2.13285e-01
3.87613e+00, 4.65136e+00, 4.26375e+00, 1.40630e-01, 1.81405e-01
4.65136e+00, 5.58163e+00, 5.11650e+00, 1.24787e-01, 1.34140e-01
5.58163e+00, 6.69796e+00, 6.13980e+00, 9.36849e-02, 8.39225e-02
6.69796e+00, 8.03755e+00, 7.36776e+00, 5.76163e-02, 4.30103e-02
8.03755e+00, 9.64506e+00, 8.84131e+00, 2.79349e-02, 1.73778e-02
9.64506e+00, 1.15741e+01, 1.06096e+01, 1.02036e-02, 5.28954e-03
1.15741e+01, 1.38889e+01, 1.27315e+01, 2.66076e-03, 1.14945e-03
1.38889e+01, 1.66667e+01, 1.52778e+01, 4.64774e-04, 1.67319e-04
1.66667e+01, 2.00000e+01, 1.83333e+01, 3.02623e-06, 9.07869e-07
