# time = 4.000000000000000e-01# start, end, pivot, particles, density
0.00000e+00, 7.25710e-04, 3.62855e-04, 1.60278e-03, 2.20856e+00
7.25710e-04, 1.52399e-03, 1.12485e-03, 1.76127e-03, 2.20632e+00
1.52399e-03, 2.40210e-03, 1.96305e-03, 1.93477e-03, 2.20334e+00
2.40210e-03, 3.36802e-03, 2.88506e-03, 2.12548e-03, 2.20048e+00
3.36802e-03, 4.43053e-03, 3.89928e-03, 2.33476e-03, 2.19740e+00
4.43053e-03, 5.59929e-03, 5.01491e-03, 2.56373e-03, 2.19354e+00
5.59929e-03, 6.88493e-03, 6.24211e-03, 2.81545e-03, 2.18993e+00
6.88493e-03, 8.29914e-03, 7.59203e-03, 3.09160e-03, 2.18611e+00
8.29914e-03, 9.85476e-03, 9.07695e-03, 3.39200e-03, 2.18048e+00
9.85476e-03, 1.15659e-02, 1.07104e-02, 3.72471e-03, 2.17668e+00
1.15659e-02, 1.34482e-02, 1.25071e-02, 4.08378e-03, 2.16956e+00
1.34482e-02, 1.55188e-02, 1.44835e-02, 4.48166e-03, 2.16449e+00
1.55188e-02, 1.77964e-02, 1.66576e-02, 4.91388e-03, 2.15749e+00
1.77964e-02, 2.03017e-02, 1.90490e-02, 5.38689e-03, 2.15016e+00
2.03017e-02, 2.30576e-02, 2.16797e-02, 5.90333e-03, 2.14209e+00
2.30576e-02, 2.60891e-02, 2.45733e-02, 6.46602e-03, 2.13297e+00
2.60891e-02, 2.94237e-02, 2.77564e-02, 7.08275e-03, 2.12401e+00
2.94237e-02, 3.30918e-02, 3.12577e-02, 7.74524e-03, 2.11152e+00
3.30918e-02, 3.71267e-02, 3.51092e-02, 8.48170e-03, 2.10209e+00
3.71267e-02, 4.15650e-02, 3.93458e-02, 9.26883e-03, 2.08834e+00
4.15650e-02, 4.64472e-02, 4.40061e-02, 1.01294e-02, 2.07476e+00
4.64472e-02, 5.18177e-02, 4.91325e-02, 1.10585e-02, 2.05915e+00
5.18177e-02, 5.77252e-02, 5.47714e-02, 1.20608e-02, 2.04162e+00
5.77252e-02, 6.42234e-02, 6.09743e-02, 1.31686e-02, 2.02648e+00
6.42234e-02, 7.13714e-02, 6.77974e-02, 1.43212e-02, 2.00351e+00
7.13714e-02, 7.92343e-02, 7.53029e-02, 1.56040e-02, 1.98453e+00
7.92343e-02, 8.78834e-02, 8.35588e-02, 1.69467e-02, 1.95936e+00
8.78834e-02, 9.73975e-02, 9.26404e-02, 1.84025e-02, 1.93425e+00
9.73975e-02, 1.07863e-01, 1.02630e-01, 1.99507e-02, 1.90634e+00
1.07863e-01, 1.19375e-01, 1.13619e-01, 2.16265e-02, 1.87861e+00
1.19375e-01, 1.32038e-01, 1.25707e-01, 2.33601e-02, 1.84472e+00
1.32038e-01, 1.45968e-01, 1.39003e-01, 2.51849e-02, 1.80803e+00
1.45968e-01, 1.61290e-01, 1.53629e-01, 2.71882e-02, 1.77440e+00
1.61290e-01, 1.78145e-01, 1.69717e-01, 2.91777e-02, 1.73113e+00
1.78145e-01, 1.96685e-01, 1.87415e-01, 3.12741e-02, 1.68683e+00
1.96685e-01, 2.17079e-01, 2.06882e-01, 3.34538e-02, 1.64036e+00
2.17079e-01, 2.39513e-01, 2.28296e-01, 3.57513e-02, 1.59365e+00
2.39513e-01, 2.64190e-01, 2.51851e-01, 3.78964e-02, 1.53570e+00
2.64190e-01, 2.91335e-01, 2.77762e-01, 4.02383e-02, 1.48236e+00
2.91335e-01, 3.21194e-01, 3.06264e-01, 4.24941e-02, 1.42315e+00
3.21194e-01, 3.54039e-01, 3.37616e-01, 4.46301e-02, 1.35881e+00
3.54039e-01, 3.90168e-01, 3.72104e-01, 4.66856e-02, 1.29217e+00
3.90168e-01, 4.29911e-01, 4.10040e-01, 4.85417e-02, 1.22140e+00
4.29911e-01, 4.73628e-01, 4.51769e-01, 5.03355e-02, 1.15140e+00
4.73628e-01, 5.21716e-01, 4.97672e-01, 5.17357e-02, 1.07584e+00
5.21716e-01, 5.74614e-01, 5.48165e-01, 5.28895e-02, 9.99853e-01
5.74614e-01, 6.32801e-01, 6.03707e-01, 5.36402e-02, 9.21857e-01
6.32801e-01, 6.96806e-01, 6.64804e-01, 5.40427e-02, 8.44341e-01
6.96806e-01, 7.67213e-01, 7.32010e-01, 5.37378e-02, 7.63251e-01
7.67213e-01, 8.44660e-01, 8.05936e-01, 5.30118e-02, 6.84492e-01
8.44660e-01, 9.29852e-01, 8.87256e-01, 5.17476e-02, 6.07425e-01
9.29852e-01, 1.02356e+00, 9.76707e-01, 4.98573e-02, 5.32033e-01
1.02356e+00, 1.12664e+00, 1.07510e+00, 4.73808e-02, 4.59642e-01
1.12664e+00, 1.24003e+00, 1.18334e+00, 4.43439e-02, 3.91073e-01
1.24003e+00, 1.36476e+00, 1.30240e+00, 4.08071e-02, 3.27165e-01
1.36476e+00, 1.50197e+00, 1.43336e+00, 3.68533e-02, 2.68606e-01
1.50197e+00, 1.65289e+00, 1.57743e+00, 3.26359e-02, 2.16243e-01
1.65289e+00, 1.81890e+00, 1.73590e+00, 2.81308e-02, 1.69448e-01
1.81890e+00, 2.00152e+00, 1.91021e+00, 2.37229e-02, 1.29906e-01
2.00152e+00, 2.20240e+00, 2.10196e+00, 1.94136e-02, 9.66440e-02
2.20240e+00, 2.42336e+00, 2.31288e+00, 1.53871e-02, 6.96357e-02
2.42336e+00, 2.66642e+00, 2.54489e+00, 1.17689e-02, 4.84194e-02
2.66642e+00, 2.93379e+00, 2.80011e+00, 8.65146e-03, 3.23579e-02
2.93379e+00, 3.22790e+00, 3.08084e+00, 6.08639e-03, 2.06946e-02
3.22790e+00, 3.55141e+00, 3.38965e+00, 4.07858e-03, 1.26071e-02
3.55141e+00, 3.90728e+00, 3.72934e+00, 2.59130e-03, 7.28165e-03
3.90728e+00, 4.29873e+00, 4.10301e+00, 1.55401e-03, 3.96986e-03
4.29873e+00, 4.72933e+00, 4.51403e+00, 8.76439e-04, 2.03540e-03
4.72933e+00, 5.20299e+00, 4.96616e+00, 4.63230e-04, 9.77983e-04
5.20299e+00, 5.72401e+00, 5.46350e+00, 2.28271e-04, 4.38119e-04
5.72401e+00, 6.29714e+00, 6.01058e+00, 1.03181e-04, 1.80032e-04
6.29714e+00, 6.92758e+00, 6.61236e+00, 4.07014e-05, 6.45604e-05
6.92758e+00, 7.62106e+00, 7.27432e+00, 1.24057e-05, 1.78889e-05
7.62106e+00, 8.38390e+00, 8.00248e+00, 3.91082e-06, 5.12671e-06
8.38390e+00, 9.22301e+00, 8.80345e+00, 3.35821e-06, 4.00209e-06
9.22301e+00, 1.01460e+01, 9.68453e+00, 8.89201e-07, 9.63353e-07
1.01460e+01, 1.11614e+01, 1.06537e+01, 1.98189e-07, 1.95196e-07
1.11614e+01, 1.22782e+01, 1.17198e+01, 3.96034e-08, 3.54595e-08
1.22782e+01, 1.35068e+01, 1.28925e+01, 4.02600e-09, 3.27704e-09
1.35068e+01, 1.48582e+01, 1.41825e+01, 0.00000e+00, 0.00000e+00
1.48582e+01, 1.63447e+01, 1.56015e+01, 0.00000e+00, 0.00000e+00
1.63447e+01, 1.79799e+01, 1.71623e+01, 0.00000e+00, 0.00000e+00
1.79799e+01, 1.97786e+01, 1.88793e+01, 0.00000e+00, 0.00000e+00
1.97786e+01, 2.17572e+01, 2.07679e+01, 0.00000e+00, 0.00000e+00
2.17572e+01, 2.39337e+01, 2.28455e+01, 0.00000e+00, 0.00000e+00
2.39337e+01, 2.63278e+01, 2.51307e+01, 0.00000e+00, 0.00000e+00
2.63278e+01, 2.89613e+01, 2.76445e+01, 4.04917e-17, 1.53756e-17
2.89613e+01, 3.18581e+01, 3.04097e+01, 2.59658e-18, 8.96345e-19
3.18581e+01, 3.50447e+01, 3.34514e+01, 6.40782e-20, 2.01090e-20
3.50447e+01, 3.85499e+01, 3.67973e+01, 8.63086e-22, 2.46231e-22
3.85499e+01, 4.24056e+01, 4.04777e+01, 6.53741e-24, 1.69551e-24
4.24056e+01, 4.66469e+01, 4.45262e+01, 1.98464e-26, 4.67933e-27
4.66469e+01, 5.13123e+01, 4.89796e+01, 2.04394e-29, 4.38105e-30
5.13123e+01, 5.64442e+01, 5.38783e+01, 5.20937e-33, 1.01509e-33
5.64442e+01, 6.20894e+01, 5.92668e+01, 1.60460e-38, 2.84244e-39
6.20894e+01, 6.82990e+01, 6.51942e+01, 2.55032e-41, 4.10701e-42
6.82990e+01, 7.51297e+01, 7.17144e+01, 6.68944e-42, 9.79330e-43
7.51297e+01, 8.26434e+01, 7.88865e+01, 7.35836e-42, 9.79327e-43
8.26434e+01, 9.09084e+01, 8.67759e+01, 9.23207e-42, 1.11700e-42
9.09084e+01, 1.00000e+02, 9.54542e+01, 0.00000e+00, 0.00000e+00
