# time = 1.000000000000000e+00# start, end, pivot, particles, density
0.00000e+00, 2.41493e-04, 1.20747e-04, 8.36678e-05, 3.46460e-01
2.41493e-04, 5.31286e-04, 3.86390e-04, 1.00355e-04, 3.46301e-01
5.31286e-04, 8.79036e-04, 7.05161e-04, 1.20360e-04, 3.46111e-01
8.79036e-04, 1.29634e-03, 1.08769e-03, 1.44337e-04, 3.45883e-01
1.29634e-03, 1.79710e-03, 1.54672e-03, 1.73068e-04, 3.45610e-01
1.79710e-03, 2.39801e-03, 2.09755e-03, 2.07485e-04, 3.45283e-01
2.39801e-03, 3.11911e-03, 2.75856e-03, 2.48699e-04, 3.44890e-01
3.11911e-03, 3.98442e-03, 3.55176e-03, 2.98032e-04, 3.44420e-01
3.98442e-03, 5.02280e-03, 4.50361e-03, 3.57053e-04, 3.43856e-01
5.02280e-03, 6.26885e-03, 5.64583e-03, 4.27623e-04, 3.43182e-01
6.26885e-03, 7.76412e-03, 7.01648e-03, 5.11941e-04, 3.42375e-01
7.76412e-03, 9.55843e-03, 8.66127e-03, 6.12594e-04, 3.41408e-01
9.55843e-03, 1.17116e-02, 1.06350e-02, 7.32630e-04, 3.40255e-01
1.17116e-02, 1.42954e-02, 1.30035e-02, 8.75590e-04, 3.38875e-01
1.42954e-02, 1.73960e-02, 1.58457e-02, 1.04561e-03, 3.37229e-01
1.73960e-02, 2.11167e-02, 1.92564e-02, 1.24742e-03, 3.35265e-01
2.11167e-02, 2.55815e-02, 2.33491e-02, 1.48649e-03, 3.32934e-01
2.55815e-02, 3.09393e-02, 2.82604e-02, 1.76889e-03, 3.30153e-01
3.09393e-02, 3.73687e-02, 3.41540e-02, 2.10152e-03, 3.26862e-01
3.73687e-02, 4.50839e-02, 4.12263e-02, 2.49173e-03, 3.22962e-01
4.50839e-02, 5.43422e-02, 4.97131e-02, 2.94745e-03, 3.18358e-01
5.43422e-02, 6.54521e-02, 5.98972e-02, 3.47641e-03, 3.12910e-01
6.54521e-02, 7.87841e-02, 7.21181e-02, 4.08750e-03, 3.06595e-01
7.87841e-02, 9.47824e-02, 8.67832e-02, 4.78619e-03, 2.99168e-01
9.47824e-02, 1.13980e-01, 1.04381e-01, 5.57825e-03, 2.90565e-01
1.13980e-01, 1.37018e-01, 1.25499e-01, 6.46536e-03, 2.80644e-01
1.37018e-01, 1.64663e-01, 1.50840e-01, 7.44465e-03, 2.69294e-01
1.64663e-01, 1.97837e-01, 1.81250e-01, 8.50672e-03, 2.56427e-01
1.97837e-01, 2.37646e-01, 2.17742e-01, 9.63367e-03, 2.41998e-01
2.37646e-01, 2.85417e-01, 2.61531e-01, 1.07817e-02, 2.25696e-01
2.85417e-01, 3.42742e-01, 3.14079e-01, 1.19618e-02, 2.08666e-01
3.42742e-01, 4.11531e-01, 3.77136e-01, 1.30594e-02, 1.89845e-01
4.11531e-01, 4.94079e-01, 4.52805e-01, 1.40525e-02, 1.70235e-01
4.94079e-01, 5.93136e-01, 5.43608e-01, 1.48671e-02, 1.50086e-01
5.93136e-01, 7.12005e-01, 6.52571e-01, 1.54567e-02, 1.30032e-01
7.12005e-01, 8.54648e-01, 7.83326e-01, 1.57702e-02, 1.10558e-01
8.54648e-01, 1.02582e+00, 9.40233e-01, 1.57962e-02, 9.22832e-02
1.02582e+00, 1.23122e+00, 1.12852e+00, 1.55475e-02, 7.56916e-02
1.23122e+00, 1.47771e+00, 1.35447e+00, 1.50679e-02, 6.11307e-02
1.47771e+00, 1.77349e+00, 1.62560e+00, 1.44171e-02, 4.87421e-02
1.77349e+00, 2.12843e+00, 1.95096e+00, 1.36596e-02, 3.84842e-02
2.12843e+00, 2.55436e+00, 2.34140e+00, 1.28476e-02, 3.01637e-02
2.55436e+00, 3.06548e+00, 2.80992e+00, 1.20166e-02, 2.35107e-02
3.06548e+00, 3.67881e+00, 3.37214e+00, 1.11840e-02, 1.82347e-02
3.67881e+00, 4.41482e+00, 4.04681e+00, 1.03587e-02, 1.40742e-02
4.41482e+00, 5.29802e+00, 4.85642e+00, 9.54466e-03, 1.08068e-02
5.29802e+00, 6.35787e+00, 5.82794e+00, 8.74663e-03, 8.25274e-03
6.35787e+00, 7.62968e+00, 6.99378e+00, 7.93618e-03, 6.24004e-03
7.62968e+00, 9.15586e+00, 8.39277e+00, 7.11910e-03, 4.66466e-03
9.15586e+00, 1.09873e+01, 1.00716e+01, 6.29533e-03, 3.43742e-03
1.09873e+01, 1.31850e+01, 1.20861e+01, 5.46056e-03, 2.48467e-03
1.31850e+01, 1.58222e+01, 1.45036e+01, 4.61535e-03, 1.75007e-03
1.58222e+01, 1.89869e+01, 1.74045e+01, 3.77395e-03, 1.19252e-03
1.89869e+01, 2.27845e+01, 2.08857e+01, 2.94802e-03, 7.76280e-04
2.27845e+01, 2.73417e+01, 2.50631e+01, 2.17240e-03, 4.76703e-04
2.73417e+01, 3.28102e+01, 3.00759e+01, 1.47512e-03, 2.69745e-04
3.28102e+01, 3.93725e+01, 3.60914e+01, 8.92300e-04, 1.35974e-04
3.93725e+01, 4.72473e+01, 4.33099e+01, 4.59457e-04, 5.83456e-05
4.72473e+01, 5.66969e+01, 5.19721e+01, 1.98599e-04, 2.10164e-05
5.66969e+01, 6.80366e+01, 6.23668e+01, 6.77795e-05, 5.97723e-06
6.80366e+01, 8.16441e+01, 7.48404e+01, 1.72254e-05, 1.26587e-06
8.16441e+01, 9.79732e+01, 8.98087e+01, 3.02545e-06, 1.85280e-07
9.79732e+01, 1.17568e+02, 1.07771e+02, 3.36440e-07, 1.71698e-08
1.17568e+02, 1.41082e+02, 1.29325e+02, 2.12069e-08, 9.01888e-10
1.41082e+02, 1.69299e+02, 1.55190e+02, 6.63590e-10, 2.35177e-11
1.69299e+02, 2.03159e+02, 1.86229e+02, 8.73760e-12, 2.58051e-13
2.03159e+02, 2.43790e+02, 2.23475e+02, 3.95061e-14, 9.72291e-16
2.43790e+02, 2.92549e+02, 2.68170e+02, 4.76644e-17, 9.77565e-19
2.92549e+02, 3.51059e+02, 3.21804e+02, 1.12023e-20, 1.91459e-22
3.51059e+02, 4.21271e+02, 3.86165e+02, 3.45202e-25, 4.91657e-27
4.21271e+02, 5.05525e+02, 4.63398e+02, 8.46061e-31, 1.00417e-32
5.05525e+02, 6.06631e+02, 5.56078e+02, 8.78697e-38, 8.69091e-40
6.06631e+02, 7.27957e+02, 6.67294e+02, 1.75473e-46, 1.44629e-48
7.27957e+02, 8.73548e+02, 8.00753e+02, 2.50449e-57, 1.72021e-59
8.73548e+02, 1.04826e+03, 9.60903e+02, 7.40404e-71, 4.23790e-73
1.04826e+03, 1.25791e+03, 1.15308e+03, 9.62888e-88, 4.59279e-90
1.25791e+03, 1.50949e+03, 1.38370e+03, 7.95486e-109, 3.16193e-111
1.50949e+03, 1.81139e+03, 1.66044e+03, 3.74309e-135, 1.23985e-137
1.81139e+03, 2.17367e+03, 1.99253e+03, 5.00251e-168, 1.38085e-170
2.17367e+03, 2.60840e+03, 2.39104e+03, 4.61698e-209, 1.06202e-211
2.60840e+03, 3.13009e+03, 2.86924e+03, 2.98576e-260, 5.72334e-263
3.13009e+03, 3.75610e+03, 3.44309e+03, 4.94066e-324, 0.00000e+00
3.75610e+03, 4.50732e+03, 4.13171e+03, 0.00000e+00, 0.00000e+00
4.50732e+03, 5.40879e+03, 4.95806e+03, 0.00000e+00, 0.00000e+00
5.40879e+03, 6.49055e+03, 5.94967e+03, 0.00000e+00, 0.00000e+00
6.49055e+03, 7.78866e+03, 7.13960e+03, 0.00000e+00, 0.00000e+00
7.78866e+03, 9.34639e+03, 8.56752e+03, 0.00000e+00, 0.00000e+00
9.34639e+03, 1.12157e+04, 1.02810e+04, 0.00000e+00, 0.00000e+00
1.12157e+04, 1.34588e+04, 1.23372e+04, 0.00000e+00, 0.00000e+00
1.34588e+04, 1.61506e+04, 1.48047e+04, 0.00000e+00, 0.00000e+00
1.61506e+04, 1.93807e+04, 1.77656e+04, 0.00000e+00, 0.00000e+00
1.93807e+04, 2.32568e+04, 2.13187e+04, 0.00000e+00, 0.00000e+00
2.32568e+04, 2.79082e+04, 2.55825e+04, 0.00000e+00, 0.00000e+00
2.79082e+04, 3.34898e+04, 3.06990e+04, 0.00000e+00, 0.00000e+00
3.34898e+04, 4.01878e+04, 3.68388e+04, 0.00000e+00, 0.00000e+00
4.01878e+04, 4.82253e+04, 4.42065e+04, 0.00000e+00, 0.00000e+00
4.82253e+04, 5.78704e+04, 5.30478e+04, 0.00000e+00, 0.00000e+00
5.78704e+04, 6.94444e+04, 6.36574e+04, 0.00000e+00, 0.00000e+00
6.94444e+04, 8.33333e+04, 7.63889e+04, 0.00000e+00, 0.00000e+00
8.33333e+04, 1.00000e+05, 9.16667e+04, 0.00000e+00, 0.00000e+00
