# time = 5.000000000000000e+00# start, end, pivot, particles, density
0.00000e+00, 7.25710e-05, 3.62855e-05, 7.02816e-04, 9.68453e+00
7.25710e-05, 1.52399e-04, 1.12485e-04, 7.73097e-04, 9.68453e+00
1.52399e-04, 2.40210e-04, 1.96305e-04, 8.50407e-04, 9.68452e+00
2.40210e-04, 3.36802e-04, 2.88506e-04, 9.35447e-04, 9.68452e+00
3.36802e-04, 4.43053e-04, 3.89928e-04, 1.02899e-03, 9.68452e+00
4.43053e-04, 5.59929e-04, 5.01491e-04, 1.13189e-03, 9.68452e+00
5.59929e-04, 6.88493e-04, 6.24211e-04, 1.24508e-03, 9.68451e+00
6.88493e-04, 8.29914e-04, 7.59203e-04, 1.36959e-03, 9.68450e+00
8.29914e-04, 9.85476e-04, 9.07695e-04, 1.50654e-03, 9.68449e+00
9.85476e-04, 1.15659e-03, 1.07104e-03, 1.65719e-03, 9.68448e+00
1.15659e-03, 1.34482e-03, 1.25071e-03, 1.82291e-03, 9.68447e+00
1.34482e-03, 1.55188e-03, 1.44835e-03, 2.00520e-03, 9.68445e+00
1.55188e-03, 1.77964e-03, 1.66576e-03, 2.20571e-03, 9.68442e+00
1.77964e-03, 2.03017e-03, 1.90490e-03, 2.42627e-03, 9.68439e+00
2.03017e-03, 2.30576e-03, 2.16797e-03, 2.66889e-03, 9.68434e+00
2.30576e-03, 2.60891e-03, 2.45733e-03, 2.93576e-03, 9.68429e+00
2.60891e-03, 2.94237e-03, 2.77564e-03, 3.22932e-03, 9.68423e+00
2.94237e-03, 3.30918e-03, 3.12577e-03, 3.55222e-03, 9.68415e+00
3.30918e-03, 3.71267e-03, 3.51092e-03, 3.90740e-03, 9.68405e+00
3.71267e-03, 4.15650e-03, 3.93458e-03, 4.29809e-03, 9.68393e+00
4.15650e-03, 4.64472e-03, 4.40061e-03, 4.72783e-03, 9.68378e+00
4.64472e-03, 5.18177e-03, 4.91325e-03, 5.20051e-03, 9.68359e+00
5.18177e-03, 5.77252e-03, 5.47714e-03, 5.72043e-03, 9.68337e+00
5.77252e-03, 6.42234e-03, 6.09743e-03, 6.29229e-03, 9.68309e+00
6.42234e-03, 7.13714e-03, 6.77974e-03, 6.92128e-03, 9.68275e+00
7.13714e-03, 7.92343e-03, 7.53029e-03, 7.61308e-03, 9.68234e+00
7.92343e-03, 8.78834e-03, 8.35588e-03, 8.37395e-03, 9.68183e+00
8.78834e-03, 9.73975e-03, 9.26404e-03, 9.21076e-03, 9.68121e+00
9.73975e-03, 1.07863e-02, 1.02630e-02, 1.01310e-02, 9.68046e+00
1.07863e-02, 1.19375e-02, 1.13619e-02, 1.11431e-02, 9.67954e+00
1.19375e-02, 1.32038e-02, 1.25707e-02, 1.22560e-02, 9.67843e+00
1.32038e-02, 1.45968e-02, 1.39003e-02, 1.34797e-02, 9.67707e+00
1.45968e-02, 1.61290e-02, 1.53629e-02, 1.48251e-02, 9.67542e+00
1.61290e-02, 1.78145e-02, 1.69717e-02, 1.63043e-02, 9.67341e+00
1.78145e-02, 1.96685e-02, 1.87415e-02, 1.79302e-02, 9.67097e+00
1.96685e-02, 2.17079e-02, 2.06882e-02, 1.97171e-02, 9.66801e+00
2.17079e-02, 2.39513e-02, 2.28296e-02, 2.16808e-02, 9.66441e+00
2.39513e-02, 2.64190e-02, 2.51851e-02, 2.38381e-02, 9.66005e+00
2.64190e-02, 2.91335e-02, 2.77762e-02, 2.62076e-02, 9.65477e+00
2.91335e-02, 3.21194e-02, 3.06264e-02, 2.88092e-02, 9.64835e+00
3.21194e-02, 3.54039e-02, 3.37616e-02, 3.16646e-02, 9.64058e+00
3.54039e-02, 3.90168e-02, 3.72104e-02, 3.47970e-02, 9.63116e+00
3.90168e-02, 4.29911e-02, 4.10040e-02, 3.82314e-02, 9.61976e+00
4.29911e-02, 4.73628e-02, 4.51769e-02, 4.19941e-02, 9.60594e+00
4.73628e-02, 5.21716e-02, 4.97672e-02, 4.61131e-02, 9.58922e+00
5.21716e-02, 5.74614e-02, 5.48165e-02, 5.06174e-02, 9.56900e+00
5.74614e-02, 6.32801e-02, 6.03707e-02, 5.55368e-02, 9.54453e+00
6.32801e-02, 6.96806e-02, 6.64804e-02, 6.09012e-02, 9.51496e+00
6.96806e-02, 7.67213e-02, 7.32010e-02, 6.67398e-02, 9.47923e+00
7.67213e-02, 8.44660e-02, 8.05936e-02, 7.30797e-02, 9.43609e+00
8.44660e-02, 9.29852e-02, 8.87256e-02, 7.99442e-02, 9.38404e+00
9.29852e-02, 1.02356e-01, 9.76707e-02, 8.73507e-02, 9.32130e+00
1.02356e-01, 1.12664e-01, 1.07510e-01, 9.53070e-02, 9.24575e+00
1.12664e-01, 1.24003e-01, 1.18334e-01, 1.03808e-01, 9.15490e+00
1.24003e-01, 1.36476e-01, 1.30240e-01, 1.12827e-01, 9.04579e+00
1.36476e-01, 1.50197e-01, 1.43336e-01, 1.22316e-01, 8.91500e+00
1.50197e-01, 1.65289e-01, 1.57743e-01, 1.32186e-01, 8.75857e+00
1.65289e-01, 1.81890e-01, 1.73590e-01, 1.42307e-01, 8.57197e+00
1.81890e-01, 2.00152e-01, 1.91021e-01, 1.52486e-01, 8.35007e+00
2.00152e-01, 2.20240e-01, 2.10196e-01, 1.62455e-01, 8.08726e+00
2.20240e-01, 2.42336e-01, 2.31288e-01, 1.71855e-01, 7.77748e+00
2.42336e-01, 2.66642e-01, 2.54489e-01, 1.80218e-01, 7.41449e+00
2.66642e-01, 2.93379e-01, 2.80011e-01, 1.86951e-01, 6.99227e+00
2.93379e-01, 3.22790e-01, 3.08084e-01, 1.91332e-01, 6.50559e+00
3.22790e-01, 3.55141e-01, 3.38965e-01, 1.92522e-01, 5.95094e+00
3.55141e-01, 3.90728e-01, 3.72934e-01, 1.89600e-01, 5.32784e+00
3.90728e-01, 4.29873e-01, 4.10301e-01, 1.81652e-01, 4.64046e+00
4.29873e-01, 4.72933e-01, 4.51403e-01, 1.67924e-01, 3.89977e+00
4.72933e-01, 5.20299e-01, 4.96616e-01, 1.48056e-01, 3.12579e+00
5.20299e-01, 5.72401e-01, 5.46350e-01, 1.22420e-01, 2.34959e+00
5.72401e-01, 6.29714e-01, 6.01058e-01, 9.25000e-02, 1.61395e+00
6.29714e-01, 6.92758e-01, 6.61236e-01, 6.12118e-02, 9.70938e-01
6.92758e-01, 7.62106e-01, 7.27432e-01, 3.28521e-02, 4.73725e-01
7.62106e-01, 8.38390e-01, 8.00248e-01, 1.21860e-02, 1.59747e-01
8.38390e-01, 9.22301e-01, 8.80345e-01, 2.05263e-03, 2.44618e-02
9.22301e-01, 1.01460e+00, 9.68453e-01, 3.44652e-05, 3.73393e-04
1.01460e+00, 1.11614e+00, 1.06537e+00, 0.00000e+00, 0.00000e+00
1.11614e+00, 1.22782e+00, 1.17198e+00, 0.00000e+00, 0.00000e+00
1.22782e+00, 1.35068e+00, 1.28925e+00, 0.00000e+00, 0.00000e+00
1.35068e+00, 1.48582e+00, 1.41825e+00, 0.00000e+00, 0.00000e+00
1.48582e+00, 1.63447e+00, 1.56015e+00, 0.00000e+00, 0.00000e+00
1.63447e+00, 1.79799e+00, 1.71623e+00, 0.00000e+00, 0.00000e+00
1.79799e+00, 1.97786e+00, 1.88793e+00, 0.00000e+00, 0.00000e+00
1.97786e+00, 2.17572e+00, 2.07679e+00, 0.00000e+00, 0.00000e+00
2.17572e+00, 2.39337e+00, 2.28455e+00, 0.00000e+00, 0.00000e+00
2.39337e+00, 2.63278e+00, 2.51307e+00, 0.00000e+00, 0.00000e+00
2.63278e+00, 2.89613e+00, 2.76445e+00, 0.00000e+00, 0.00000e+00
2.89613e+00, 3.18581e+00, 3.04097e+00, 0.00000e+00, 0.00000e+00
3.18581e+00, 3.50447e+00, 3.34514e+00, 0.00000e+00, 0.00000e+00
3.50447e+00, 3.85499e+00, 3.67973e+00, 0.00000e+00, 0.00000e+00
3.85499e+00, 4.24056e+00, 4.04777e+00, 0.00000e+00, 0.00000e+00
4.24056e+00, 4.66469e+00, 4.45262e+00, 0.00000e+00, 0.00000e+00
4.66469e+00, 5.13123e+00, 4.89796e+00, 0.00000e+00, 0.00000e+00
5.13123e+00, 5.64442e+00, 5.38783e+00, 0.00000e+00, 0.00000e+00
5.64442e+00, 6.20894e+00, 5.92668e+00, 0.00000e+00, 0.00000e+00
6.20894e+00, 6.82990e+00, 6.51942e+00, 0.00000e+00, 0.00000e+00
6.82990e+00, 7.51297e+00, 7.17144e+00, 0.00000e+00, 0.00000e+00
7.51297e+00, 8.26434e+00, 7.88865e+00, 0.00000e+00, 0.00000e+00
8.26434e+00, 9.09084e+00, 8.67759e+00, 0.00000e+00, 0.00000e+00
9.09084e+00, 1.00000e+01, 9.54542e+00, 0.00000e+00, 0.00000e+00
