# time = 4.700000000000000e+00# start, end, pivot, particles, density
0.00000e+00, 7.25710e-05, 3.62855e-05, 0.00000e+00, 0.00000e+00
7.25710e-05, 1.52399e-04, 1.12485e-04, 6.50223e-04, 8.14529e+00
1.52399e-04, 2.40210e-04, 1.96305e-04, 7.15245e-04, 8.14529e+00
2.40210e-04, 3.36802e-04, 2.88506e-04, 7.86770e-04, 8.14529e+00
3.36802e-04, 4.43053e-04, 3.89928e-04, 8.65446e-04, 8.14529e+00
4.43053e-04, 5.59929e-04, 5.01491e-04, 9.51991e-04, 8.14528e+00
5.59929e-04, 6.88493e-04, 6.24211e-04, 1.04719e-03, 8.14528e+00
6.88493e-04, 8.29914e-04, 7.59203e-04, 1.15191e-03, 8.14527e+00
8.29914e-04, 9.85476e-04, 9.07695e-04, 1.26710e-03, 8.14526e+00
9.85476e-04, 1.15659e-03, 1.07104e-03, 1.39380e-03, 8.14525e+00
1.15659e-03, 1.34482e-03, 1.25071e-03, 1.53318e-03, 8.14523e+00
1.34482e-03, 1.55188e-03, 1.44835e-03, 1.68649e-03, 8.14521e+00
1.55188e-03, 1.77964e-03, 1.66576e-03, 1.85514e-03, 8.14518e+00
1.77964e-03, 2.03017e-03, 1.90490e-03, 2.04064e-03, 8.14514e+00
2.03017e-03, 2.30576e-03, 2.16797e-03, 2.24469e-03, 8.14510e+00
2.30576e-03, 2.60891e-03, 2.45733e-03, 2.46915e-03, 8.14505e+00
2.60891e-03, 2.94237e-03, 2.77564e-03, 2.71604e-03, 8.14498e+00
2.94237e-03, 3.30918e-03, 3.12577e-03, 2.98761e-03, 8.14489e+00
3.30918e-03, 3.71267e-03, 3.51092e-03, 3.28633e-03, 8.14479e+00
3.71267e-03, 4.15650e-03, 3.93458e-03, 3.61491e-03, 8.14466e+00
4.15650e-03, 4.64472e-03, 4.40061e-03, 3.97632e-03, 8.14450e+00
4.64472e-03, 5.18177e-03, 4.91325e-03, 4.37385e-03, 8.14431e+00
5.18177e-03, 5.77252e-03, 5.47714e-03, 4.81109e-03, 8.14407e+00
5.77252e-03, 6.42234e-03, 6.09743e-03, 5.29201e-03, 8.14378e+00
6.42234e-03, 7.13714e-03, 6.77974e-03, 5.82096e-03, 8.14342e+00
7.13714e-03, 7.92343e-03, 7.53029e-03, 6.40271e-03, 8.14299e+00
7.92343e-03, 8.78834e-03, 8.35588e-03, 7.04252e-03, 8.14245e+00
8.78834e-03, 9.73975e-03, 9.26404e-03, 7.74615e-03, 8.14180e+00
9.73975e-03, 1.07863e-02, 1.02630e-02, 8.51994e-03, 8.14101e+00
1.07863e-02, 1.19375e-02, 1.13619e-02, 9.37083e-03, 8.14005e+00
1.19375e-02, 1.32038e-02, 1.25707e-02, 1.03064e-02, 8.13887e+00
1.32038e-02, 1.45968e-02, 1.39003e-02, 1.13351e-02, 8.13745e+00
1.45968e-02, 1.61290e-02, 1.53629e-02, 1.24659e-02, 8.13571e+00
1.61290e-02, 1.78145e-02, 1.69717e-02, 1.37090e-02, 8.13360e+00
1.78145e-02, 1.96685e-02, 1.87415e-02, 1.50751e-02, 8.13104e+00
1.96685e-02, 2.17079e-02, 2.06882e-02, 1.65763e-02, 8.12794e+00
2.17079e-02, 2.39513e-02, 2.28296e-02, 1.82255e-02, 8.12417e+00
2.39513e-02, 2.64190e-02, 2.51851e-02, 2.00367e-02, 8.11959e+00
2.64190e-02, 2.91335e-02, 2.77762e-02, 2.20253e-02, 8.11404e+00
2.91335e-02, 3.21194e-02, 3.06264e-02, 2.42078e-02, 8.10732e+00
3.21194e-02, 3.54039e-02, 3.37616e-02, 2.66018e-02, 8.09918e+00
3.54039e-02, 3.90168e-02, 3.72104e-02, 2.92264e-02, 8.08931e+00
3.90168e-02, 4.29911e-02, 4.10040e-02, 3.21015e-02, 8.07737e+00
4.29911e-02, 4.73628e-02, 4.51769e-02, 3.52485e-02, 8.06292e+00
4.73628e-02, 5.21716e-02, 4.97672e-02, 3.86893e-02, 8.04544e+00
5.21716e-02, 5.74614e-02, 5.48165e-02, 4.24465e-02, 8.02432e+00
5.74614e-02, 6.32801e-02, 6.03707e-02, 4.65427e-02, 7.99880e+00
6.32801e-02, 6.96806e-02, 6.64804e-02, 5.09998e-02, 7.96799e+00
6.96806e-02, 7.67213e-02, 7.32010e-02, 5.58381e-02, 7.93084e+00
7.67213e-02, 8.44660e-02, 8.05936e-02, 6.10752e-02, 7.88606e+00
8.44660e-02, 9.29852e-02, 8.87256e-02, 6.67236e-02, 7.83217e+00
9.29852e-02, 1.02356e-01, 9.76707e-02, 7.27890e-02, 7.76740e+00
1.02356e-01, 1.12664e-01, 1.07510e-01, 7.92667e-02, 7.68967e+00
1.12664e-01, 1.24003e-01, 1.18334e-01, 8.61379e-02, 7.59659e+00
1.24003e-01, 1.36476e-01, 1.30240e-01, 9.33645e-02, 7.48538e+00
1.36476e-01, 1.50197e-01, 1.43336e-01, 1.00883e-01, 7.35288e+00
1.50197e-01, 1.65289e-01, 1.57743e-01, 1.08597e-01, 7.19557e+00
1.65289e-01, 1.81890e-01, 1.73590e-01, 1.16369e-01, 7.00956e+00
1.81890e-01, 2.00152e-01, 1.91021e-01, 1.24009e-01, 6.79071e+00
2.00152e-01, 2.20240e-01, 2.10196e-01, 1.31269e-01, 6.53479e+00
2.20240e-01, 2.42336e-01, 2.31288e-01, 1.37831e-01, 6.23768e+00
2.42336e-01, 2.66642e-01, 2.54489e-01, 1.43304e-01, 5.89579e+00
2.66642e-01, 2.93379e-01, 2.80011e-01, 1.47228e-01, 5.50657e+00
2.93379e-01, 3.22790e-01, 3.08084e-01, 1.49087e-01, 5.06917e+00
3.22790e-01, 3.55141e-01, 3.38965e-01, 1.48342e-01, 4.58531e+00
3.55141e-01, 3.90728e-01, 3.72934e-01, 1.44487e-01, 4.06015e+00
3.90728e-01, 4.29873e-01, 4.10301e-01, 1.37135e-01, 3.50323e+00
4.29873e-01, 4.72933e-01, 4.51403e-01, 1.26122e-01, 2.92899e+00
4.72933e-01, 5.20299e-01, 4.96616e-01, 1.11632e-01, 2.35680e+00
5.20299e-01, 5.72401e-01, 5.46350e-01, 9.42991e-02, 1.80988e+00
5.72401e-01, 6.29714e-01, 6.01058e-01, 7.52472e-02, 1.31292e+00
6.29714e-01, 6.92758e-01, 6.61236e-01, 5.60096e-02, 8.88420e-01
6.92758e-01, 7.62106e-01, 7.27432e-01, 3.82908e-02, 5.52151e-01
7.62106e-01, 8.38390e-01, 8.00248e-01, 2.35900e-02, 3.09242e-01
8.38390e-01, 9.22301e-01, 8.80345e-01, 1.27968e-02, 1.52504e-01
9.22301e-01, 1.01460e+00, 9.68453e-01, 9.76686e-03, 1.05813e-01
1.01460e+00, 1.11614e+00, 1.06537e+00, 5.45690e-98, 5.37451e-97
1.11614e+00, 1.22782e+00, 1.17198e+00, 0.00000e+00, 0.00000e+00
1.22782e+00, 1.35068e+00, 1.28925e+00, 0.00000e+00, 0.00000e+00
1.35068e+00, 1.48582e+00, 1.41825e+00, 0.00000e+00, 0.00000e+00
1.48582e+00, 1.63447e+00, 1.56015e+00, 0.00000e+00, 0.00000e+00
1.63447e+00, 1.79799e+00, 1.71623e+00, 0.00000e+00, 0.00000e+00
1.79799e+00, 1.97786e+00, 1.88793e+00, 0.00000e+00, 0.00000e+00
1.97786e+00, 2.17572e+00, 2.07679e+00, 0.00000e+00, 0.00000e+00
2.17572e+00, 2.39337e+00, 2.28455e+00, 0.00000e+00, 0.00000e+00
2.39337e+00, 2.63278e+00, 2.51307e+00, 0.00000e+00, 0.00000e+00
2.63278e+00, 2.89613e+00, 2.76445e+00, 0.00000e+00, 0.00000e+00
2.89613e+00, 3.18581e+00, 3.04097e+00, 0.00000e+00, 0.00000e+00
3.18581e+00, 3.50447e+00, 3.34514e+00, 0.00000e+00, 0.00000e+00
3.50447e+00, 3.85499e+00, 3.67973e+00, 0.00000e+00, 0.00000e+00
3.85499e+00, 4.24056e+00, 4.04777e+00, 0.00000e+00, 0.00000e+00
4.24056e+00, 4.66469e+00, 4.45262e+00, 0.00000e+00, 0.00000e+00
4.66469e+00, 5.13123e+00, 4.89796e+00, 0.00000e+00, 0.00000e+00
5.13123e+00, 5.64442e+00, 5.38783e+00, 0.00000e+00, 0.00000e+00
5.64442e+00, 6.20894e+00, 5.92668e+00, 0.00000e+00, 0.00000e+00
6.20894e+00, 6.82990e+00, 6.51942e+00, 0.00000e+00, 0.00000e+00
6.82990e+00, 7.51297e+00, 7.17144e+00, 0.00000e+00, 0.00000e+00
7.51297e+00, 8.26434e+00, 7.88865e+00, 0.00000e+00, 0.00000e+00
8.26434e+00, 9.09084e+00, 8.67759e+00, 0.00000e+00, 0.00000e+00
9.09084e+00, 1.00000e+01, 9.54542e+00, 0.00000e+00, 0.00000e+00
