# time = 4.600000000000000e-01# start, end, pivot, particles, density
0.00000e+00, 2.41493e-04, 1.20747e-04, 2.41464e-04, 9.99879e-01
2.41493e-04, 5.31286e-04, 3.86390e-04, 1.81951e-04, 6.27866e-01
5.31286e-04, 8.79036e-04, 7.05161e-04, 2.18245e-04, 6.27592e-01
8.79036e-04, 1.29634e-03, 1.08769e-03, 2.61757e-04, 6.27262e-01
1.29634e-03, 1.79710e-03, 1.54672e-03, 3.13910e-04, 6.26867e-01
1.79710e-03, 2.39801e-03, 2.09755e-03, 3.76408e-04, 6.26393e-01
2.39801e-03, 3.11911e-03, 2.75856e-03, 4.51280e-04, 6.25825e-01
3.11911e-03, 3.98442e-03, 3.55176e-03, 5.40946e-04, 6.25144e-01
3.98442e-03, 5.02280e-03, 4.50361e-03, 6.48289e-04, 6.24328e-01
5.02280e-03, 6.26885e-03, 5.64583e-03, 7.76729e-04, 6.23351e-01
6.26885e-03, 7.76412e-03, 7.01648e-03, 9.30324e-04, 6.22181e-01
7.76412e-03, 9.55843e-03, 8.66127e-03, 1.11388e-03, 6.20780e-01
9.55843e-03, 1.17116e-02, 1.06350e-02, 1.33304e-03, 6.19104e-01
1.17116e-02, 1.42954e-02, 1.30035e-02, 1.59447e-03, 6.17100e-01
1.42954e-02, 1.73960e-02, 1.58457e-02, 1.90594e-03, 6.14705e-01
1.73960e-02, 2.11167e-02, 1.92564e-02, 2.27649e-03, 6.11846e-01
2.11167e-02, 2.55815e-02, 2.33491e-02, 2.71657e-03, 6.08437e-01
2.55815e-02, 3.09393e-02, 2.82604e-02, 3.23812e-03, 6.04376e-01
3.09393e-02, 3.73687e-02, 3.41540e-02, 3.85469e-03, 5.99545e-01
3.73687e-02, 4.50839e-02, 4.12263e-02, 4.58139e-03, 5.93811e-01
4.50839e-02, 5.43422e-02, 4.97131e-02, 5.43476e-03, 5.87017e-01
5.43422e-02, 6.54521e-02, 5.98972e-02, 6.43251e-03, 5.78987e-01
6.54521e-02, 7.87841e-02, 7.21181e-02, 7.59288e-03, 5.69526e-01
7.87841e-02, 9.47824e-02, 8.67832e-02, 8.93376e-03, 5.58419e-01
9.47824e-02, 1.13980e-01, 1.04381e-01, 1.04712e-02, 5.45435e-01
1.13980e-01, 1.37018e-01, 1.25499e-01, 1.22176e-02, 5.30335e-01
1.37018e-01, 1.64663e-01, 1.50840e-01, 1.41786e-02, 5.12881e-01
1.64663e-01, 1.97837e-01, 1.81250e-01, 1.63499e-02, 4.92852e-01
1.97837e-01, 2.37646e-01, 2.17742e-01, 1.87127e-02, 4.70064e-01
2.37646e-01, 2.85417e-01, 2.61531e-01, 2.12293e-02, 4.44399e-01
2.85417e-01, 3.42742e-01, 3.14079e-01, 2.38379e-02, 4.15839e-01
3.42742e-01, 4.11531e-01, 3.77136e-01, 2.64497e-02, 3.84501e-01
4.11531e-01, 4.94079e-01, 4.52805e-01, 2.89472e-02, 3.50673e-01
4.94079e-01, 5.93136e-01, 5.43608e-01, 3.11878e-02, 3.14846e-01
5.93136e-01, 7.12005e-01, 6.52571e-01, 3.30129e-02, 2.77726e-01
7.12005e-01, 8.54648e-01, 7.83326e-01, 3.42645e-02, 2.40212e-01
8.54648e-01, 1.02582e+00, 9.40233e-01, 3.48075e-02, 2.03349e-01
1.02582e+00, 1.23122e+00, 1.12852e+00, 3.45551e-02, 1.68229e-01
1.23122e+00, 1.47771e+00, 1.35447e+00, 3.34899e-02, 1.35869e-01
1.47771e+00, 1.77349e+00, 1.62560e+00, 3.16731e-02, 1.07082e-01
1.77349e+00, 2.12843e+00, 1.95096e+00, 2.92360e-02, 8.23688e-02
2.12843e+00, 2.55436e+00, 2.34140e+00, 2.63548e-02, 6.18762e-02
2.55436e+00, 3.06548e+00, 2.80992e+00, 2.32169e-02, 4.54241e-02
3.06548e+00, 3.67881e+00, 3.37214e+00, 1.99916e-02, 3.25948e-02
3.67881e+00, 4.41482e+00, 4.04681e+00, 1.68150e-02, 2.28463e-02
4.41482e+00, 5.29802e+00, 4.85642e+00, 1.37900e-02, 1.56136e-02
5.29802e+00, 6.35787e+00, 5.82794e+00, 1.09938e-02, 1.03730e-02
6.35787e+00, 7.62968e+00, 6.99378e+00, 8.48504e-03, 6.67160e-03
7.62968e+00, 9.15586e+00, 8.39277e+00, 6.30706e-03, 4.13258e-03
9.15586e+00, 1.09873e+01, 1.00716e+01, 4.48690e-03, 2.44996e-03
1.09873e+01, 1.31850e+01, 1.20861e+01, 3.03258e-03, 1.37989e-03
1.31850e+01, 1.58222e+01, 1.45036e+01, 1.93073e-03, 7.32102e-04
1.58222e+01, 1.89869e+01, 1.74045e+01, 1.14670e-03, 3.62344e-04
1.89869e+01, 2.27845e+01, 2.08857e+01, 6.28437e-04, 1.65482e-04
2.27845e+01, 2.73417e+01, 2.50631e+01, 3.13993e-04, 6.89013e-05
2.73417e+01, 3.28102e+01, 3.00759e+01, 1.41182e-04, 2.58169e-05
3.28102e+01, 3.93725e+01, 3.60914e+01, 5.63543e-05, 8.58760e-06
3.93725e+01, 4.72473e+01, 4.33099e+01, 1.96992e-05, 2.50156e-06
4.72473e+01, 5.66969e+01, 5.19721e+01, 5.95417e-06, 6.30092e-07
5.66969e+01, 6.80366e+01, 6.23668e+01, 1.53991e-06, 1.35799e-07
6.80366e+01, 8.16441e+01, 7.48404e+01, 3.38557e-07, 2.48800e-08
8.16441e+01, 9.79732e+01, 8.98087e+01, 6.32280e-08, 3.87211e-09
9.79732e+01, 1.17568e+02, 1.07771e+02, 1.00955e-08, 5.15211e-10
1.17568e+02, 1.41082e+02, 1.29325e+02, 1.39675e-09, 5.94012e-11
1.41082e+02, 1.69299e+02, 1.55190e+02, 1.70468e-10, 6.04139e-12
1.69299e+02, 2.03159e+02, 1.86229e+02, 1.86858e-11, 5.51855e-13
2.03159e+02, 2.43790e+02, 2.23475e+02, 1.86625e-12, 4.59307e-14
2.43790e+02, 2.92549e+02, 2.68170e+02, 1.71442e-13, 3.51615e-15
2.92549e+02, 3.51059e+02, 3.21804e+02, 1.45643e-14, 2.48920e-16
3.51059e+02, 4.21271e+02, 3.86165e+02, 1.14746e-15, 1.63429e-17
4.21271e+02, 5.05525e+02, 4.63398e+02, 8.39743e-17, 9.96676e-19
5.05525e+02, 6.06631e+02, 5.56078e+02, 5.71360e-18, 5.65114e-20
6.06631e+02, 7.27957e+02, 6.67294e+02, 3.61640e-19, 2.98072e-21
7.27957e+02, 8.73548e+02, 8.00753e+02, 2.13004e-20, 1.46303e-22
8.73548e+02, 1.04826e+03, 9.60903e+02, 1.16763e-21, 6.68328e-24
1.04826e+03, 1.25791e+03, 1.15308e+03, 5.95678e-23, 2.84127e-25
1.25791e+03, 1.50949e+03, 1.38370e+03, 2.82751e-24, 1.12389e-26
1.50949e+03, 1.81139e+03, 1.66044e+03, 1.24827e-25, 4.13474e-28
1.81139e+03, 2.17367e+03, 1.99253e+03, 5.12240e-27, 1.41394e-29
2.17367e+03, 2.60840e+03, 2.39104e+03, 1.95235e-28, 4.49090e-31
2.60840e+03, 3.13009e+03, 2.86924e+03, 6.90458e-30, 1.32353e-32
3.13009e+03, 3.75610e+03, 3.44309e+03, 2.26306e-31, 3.61501e-34
3.75610e+03, 4.50732e+03, 4.13171e+03, 6.86460e-33, 9.13793e-36
4.50732e+03, 5.40879e+03, 4.95806e+03, 1.92383e-34, 2.13412e-37
5.40879e+03, 6.49055e+03, 5.94967e+03, 4.97164e-36, 4.59589e-39
6.49055e+03, 7.78866e+03, 7.13960e+03, 1.18202e-37, 9.10570e-41
7.78866e+03, 9.34639e+03, 8.56752e+03, 2.57867e-39, 1.65540e-42
9.34639e+03, 1.12157e+04, 1.02810e+04, 5.14618e-41, 2.75303e-44
1.12157e+04, 1.34588e+04, 1.23372e+04, 9.36171e-43, 4.17350e-46
1.34588e+04, 1.61506e+04, 1.48047e+04, 1.54603e-44, 5.74356e-48
1.61506e+04, 1.93807e+04, 1.77656e+04, 2.30667e-46, 7.14116e-50
1.93807e+04, 2.32568e+04, 2.13187e+04, 3.09180e-48, 7.97651e-52
2.32568e+04, 2.79082e+04, 2.55825e+04, 3.69828e-50, 7.95096e-54
2.79082e+04, 3.34898e+04, 3.06990e+04, 3.91645e-52, 7.01668e-56
3.34898e+04, 4.01878e+04, 3.68388e+04, 3.63681e-54, 5.42972e-58
4.01878e+04, 4.82253e+04, 4.42065e+04, 2.92667e-56, 3.64124e-60
4.82253e+04, 5.78704e+04, 5.30478e+04, 2.01136e-58, 2.08538e-62
5.78704e+04, 6.94444e+04, 6.36574e+04, 1.15872e-60, 1.00114e-64
6.94444e+04, 8.33333e+04, 7.63889e+04, 5.46102e-63, 3.93193e-67
8.33333e+04, 1.00000e+05, 9.16667e+04, 0.00000e+00, 0.00000e+00
