# time = 9.400000000000001e-01# start, end, pivot, particles, density
0.00000e+00, 2.41493e-04, 1.20747e-04, 2.41464e-04, 9.99879e-01
2.41493e-04, 5.31286e-04, 3.86390e-04, 1.12004e-04, 3.86497e-01
5.31286e-04, 8.79036e-04, 7.05161e-04, 1.34335e-04, 3.86298e-01
8.79036e-04, 1.29634e-03, 1.08769e-03, 1.61103e-04, 3.86059e-01
1.29634e-03, 1.79710e-03, 1.54672e-03, 1.93180e-04, 3.85773e-01
1.79710e-03, 2.39801e-03, 2.09755e-03, 2.31610e-04, 3.85430e-01
2.39801e-03, 3.11911e-03, 2.75856e-03, 2.77635e-04, 3.85019e-01
3.11911e-03, 3.98442e-03, 3.55176e-03, 3.32736e-04, 3.84526e-01
3.98442e-03, 5.02280e-03, 4.50361e-03, 3.98671e-04, 3.83936e-01
5.02280e-03, 6.26885e-03, 5.64583e-03, 4.77525e-04, 3.83230e-01
6.26885e-03, 7.76412e-03, 7.01648e-03, 5.71765e-04, 3.82384e-01
7.76412e-03, 9.55843e-03, 8.66127e-03, 6.84302e-04, 3.81372e-01
9.55843e-03, 1.17116e-02, 1.06350e-02, 8.18557e-04, 3.80162e-01
1.17116e-02, 1.42954e-02, 1.30035e-02, 9.78533e-04, 3.78716e-01
1.42954e-02, 1.73960e-02, 1.58457e-02, 1.16889e-03, 3.76990e-01
1.73960e-02, 2.11167e-02, 1.92564e-02, 1.39501e-03, 3.74933e-01
2.11167e-02, 2.55815e-02, 2.33491e-02, 1.66307e-03, 3.72481e-01
2.55815e-02, 3.09393e-02, 2.82604e-02, 1.98006e-03, 3.69566e-01
3.09393e-02, 3.73687e-02, 3.41540e-02, 2.35382e-03, 3.66106e-01
3.73687e-02, 4.50839e-02, 4.12263e-02, 2.79297e-03, 3.62007e-01
4.50839e-02, 5.43422e-02, 4.97131e-02, 3.30671e-03, 3.57163e-01
5.43422e-02, 6.54521e-02, 5.98972e-02, 3.90466e-03, 3.51457e-01
6.54521e-02, 7.87841e-02, 7.21181e-02, 4.59631e-03, 3.44760e-01
7.87841e-02, 9.47824e-02, 8.67832e-02, 5.39036e-03, 3.36933e-01
9.47824e-02, 1.13980e-01, 1.04381e-01, 6.29374e-03, 3.27834e-01
1.13980e-01, 1.37018e-01, 1.25499e-01, 7.31027e-03, 3.17320e-01
1.37018e-01, 1.64663e-01, 1.50840e-01, 8.43892e-03, 3.05259e-01
1.64663e-01, 1.97837e-01, 1.81250e-01, 9.67173e-03, 2.91545e-01
1.97837e-01, 2.37646e-01, 2.17742e-01, 1.09915e-02, 2.76107e-01
2.37646e-01, 2.85417e-01, 2.61531e-01, 1.23696e-02, 2.58937e-01
2.85417e-01, 3.42742e-01, 3.14079e-01, 1.37641e-02, 2.40108e-01
3.42742e-01, 4.11531e-01, 3.77136e-01, 1.51196e-02, 2.19795e-01
4.11531e-01, 4.94079e-01, 4.52805e-01, 1.63685e-02, 1.98292e-01
4.94079e-01, 5.93136e-01, 5.43608e-01, 1.74359e-02, 1.76018e-01
5.93136e-01, 7.12005e-01, 6.52571e-01, 1.82473e-02, 1.53508e-01
7.12005e-01, 8.54648e-01, 7.83326e-01, 1.87392e-02, 1.31372e-01
8.54648e-01, 1.02582e+00, 9.40233e-01, 1.88712e-02, 1.10248e-01
1.02582e+00, 1.23122e+00, 1.12852e+00, 1.86349e-02, 9.07225e-02
1.23122e+00, 1.47771e+00, 1.35447e+00, 1.80574e-02, 7.32592e-02
1.47771e+00, 1.77349e+00, 1.62560e+00, 1.71964e-02, 5.81385e-02
1.77349e+00, 2.12843e+00, 1.95096e+00, 1.61275e-02, 4.54372e-02
2.12843e+00, 2.55436e+00, 2.34140e+00, 1.49280e-02, 3.50481e-02
2.55436e+00, 3.06548e+00, 2.80992e+00, 1.36638e-02, 2.67334e-02
3.06548e+00, 3.67881e+00, 3.37214e+00, 1.23833e-02, 2.01901e-02
3.67881e+00, 4.41482e+00, 4.04681e+00, 1.11182e-02, 1.51061e-02
4.41482e+00, 5.29802e+00, 4.85642e+00, 9.88780e-03, 1.11954e-02
5.29802e+00, 6.35787e+00, 5.82794e+00, 8.70443e-03, 8.21292e-03
6.35787e+00, 7.62968e+00, 6.99378e+00, 7.57641e-03, 5.95716e-03
7.62968e+00, 9.15586e+00, 8.39277e+00, 6.51026e-03, 4.26573e-03
9.15586e+00, 1.09873e+01, 1.00716e+01, 5.51182e-03, 3.00960e-03
1.09873e+01, 1.31850e+01, 1.20861e+01, 4.58682e-03, 2.08710e-03
1.31850e+01, 1.58222e+01, 1.45036e+01, 3.74110e-03, 1.41857e-03
1.58222e+01, 1.89869e+01, 1.74045e+01, 2.98040e-03, 9.41769e-04
1.89869e+01, 2.27845e+01, 2.08857e+01, 2.30989e-03, 6.08246e-04
2.27845e+01, 2.73417e+01, 2.50631e+01, 1.73344e-03, 3.80379e-04
2.73417e+01, 3.28102e+01, 3.00759e+01, 1.25275e-03, 2.29083e-04
3.28102e+01, 3.93725e+01, 3.60914e+01, 8.66463e-04, 1.32037e-04
3.93725e+01, 4.72473e+01, 4.33099e+01, 5.69480e-04, 7.23173e-05
4.72473e+01, 5.66969e+01, 5.19721e+01, 3.52852e-04, 3.73400e-05
5.66969e+01, 6.80366e+01, 6.23668e+01, 2.04300e-04, 1.80165e-05
6.80366e+01, 8.16441e+01, 7.48404e+01, 1.09489e-04, 8.04617e-06
8.16441e+01, 9.79732e+01, 8.98087e+01, 5.37679e-05, 3.29277e-06
9.79732e+01, 1.17568e+02, 1.07771e+02, 2.39492e-05, 1.22222e-06
1.17568e+02, 1.41082e+02, 1.29325e+02, 9.58083e-06, 4.07454e-07
1.41082e+02, 1.69299e+02, 1.55190e+02, 3.41280e-06, 1.20950e-07
1.69299e+02, 2.03159e+02, 1.86229e+02, 1.07560e-06, 3.17662e-08
2.03159e+02, 2.43790e+02, 2.23475e+02, 2.99087e-07, 7.36089e-09
2.43790e+02, 2.92549e+02, 2.68170e+02, 7.35156e-08, 1.50776e-09
2.92549e+02, 3.51059e+02, 3.21804e+02, 1.60899e-08, 2.74994e-10
3.51059e+02, 4.21271e+02, 3.86165e+02, 3.17365e-09, 4.52009e-11
4.21271e+02, 5.05525e+02, 4.63398e+02, 5.72537e-10, 6.79534e-12
5.05525e+02, 6.06631e+02, 5.56078e+02, 9.58463e-11, 9.47985e-13
6.06631e+02, 7.27957e+02, 6.67294e+02, 1.50649e-11, 1.24168e-13
7.27957e+02, 8.73548e+02, 8.00753e+02, 2.24123e-12, 1.53940e-14
8.73548e+02, 1.04826e+03, 9.60903e+02, 3.17171e-13, 1.81542e-15
1.04826e+03, 1.25791e+03, 1.15308e+03, 4.28196e-14, 2.04242e-16
1.25791e+03, 1.50949e+03, 1.38370e+03, 5.52443e-15, 2.19587e-17
1.50949e+03, 1.81139e+03, 1.66044e+03, 6.81907e-16, 2.25873e-18
1.81139e+03, 2.17367e+03, 1.99253e+03, 8.05990e-17, 2.22478e-19
2.17367e+03, 2.60840e+03, 2.39104e+03, 9.12868e-18, 2.09983e-20
2.60840e+03, 3.13009e+03, 2.86924e+03, 9.91347e-19, 1.90029e-21
3.13009e+03, 3.75610e+03, 3.44309e+03, 1.03280e-19, 1.64980e-22
3.75610e+03, 4.50732e+03, 4.13171e+03, 1.03275e-20, 1.37476e-23
4.50732e+03, 5.40879e+03, 4.95806e+03, 9.91612e-22, 1.10000e-24
5.40879e+03, 6.49055e+03, 5.94967e+03, 9.14594e-23, 8.45470e-26
6.49055e+03, 7.78866e+03, 7.13960e+03, 8.10596e-24, 6.24444e-27
7.78866e+03, 9.34639e+03, 8.56752e+03, 6.90563e-25, 4.43313e-28
9.34639e+03, 1.12157e+04, 1.02810e+04, 5.65643e-26, 3.02600e-29
1.12157e+04, 1.34588e+04, 1.23372e+04, 4.45582e-27, 1.98643e-30
1.34588e+04, 1.61506e+04, 1.48047e+04, 3.37637e-28, 1.25433e-31
1.61506e+04, 1.93807e+04, 1.77656e+04, 2.46142e-29, 7.62024e-33
1.93807e+04, 2.32568e+04, 2.13187e+04, 1.72665e-30, 4.45458e-34
2.32568e+04, 2.79082e+04, 2.55825e+04, 1.16563e-31, 2.50600e-35
2.79082e+04, 3.34898e+04, 3.06990e+04, 7.57351e-33, 1.35686e-36
3.34898e+04, 4.01878e+04, 3.68388e+04, 4.73639e-34, 7.07140e-38
4.01878e+04, 4.82253e+04, 4.42065e+04, 2.85124e-35, 3.54740e-39
4.82253e+04, 5.78704e+04, 5.30478e+04, 1.65222e-36, 1.71302e-40
5.78704e+04, 6.94444e+04, 6.36574e+04, 9.21620e-38, 7.96280e-42
6.94444e+04, 8.33333e+04, 7.63889e+04, 4.94851e-39, 3.56293e-43
8.33333e+04, 1.00000e+05, 9.16667e+04, 0.00000e+00, 0.00000e+00
